SpectraSuite Data File
++++++++++++++++++++++++++++++++++++
Date: Fri Feb 01 16:49:46 EST 2013
User: group
Dark Spectrum Present: No
Reference Spectrum Present: No
Number of Sampled Component Spectra: 1
Spectrometers: USB2E7196
Integration Time (usec): 35000 (USB2E7196)
Spectra Averaged: 100 (USB2E7196)
Boxcar Smoothing: 10 (USB2E7196)
Correct for Electrical Dark: No (USB2E7196)
Strobe/Lamp Enabled: No (USB2E7196)
Correct for Detector Non-linearity: No (USB2E7196)
Correct for Stray Light: No (USB2E7196)
Number of Pixels in Processed Spectrum: 2048
>>>>>Begin Processed Spectral Data<<<<<
339.09	0.00
339.48	213.31
339.86	214.72
340.24	216.85
340.63	217.66
341.01	220.65
341.39	220.38
341.78	221.43
342.16	222.28
342.54	223.51
342.93	211.75
343.31	222.46
343.69	222.99
344.07	223.45
344.46	223.85
344.84	224.23
345.22	224.43
345.60	224.68
345.99	224.88
346.37	225.02
346.75	225.11
347.13	225.15
347.52	225.21
347.90	225.27
348.28	225.30
348.66	225.34
349.05	225.32
349.43	225.37
349.81	225.39
350.19	225.41
350.57	225.41
350.96	225.48
351.34	225.51
351.72	225.58
352.10	225.70
352.48	225.73
352.87	225.75
353.25	225.81
353.63	225.87
354.01	225.91
354.39	225.98
354.77	226.05
355.15	226.14
355.54	226.21
355.92	226.25
356.30	226.34
356.68	226.50
357.06	226.56
357.44	226.62
357.82	226.70
358.20	226.78
358.58	226.88
358.97	226.94
359.35	227.07
359.73	227.15
360.11	227.19
360.49	227.26
360.87	227.33
361.25	227.42
361.63	227.47
362.01	227.53
362.39	227.56
362.77	227.63
363.15	227.68
363.53	227.70
363.91	227.74
364.29	227.78
364.67	227.69
365.05	227.70
365.43	227.73
365.81	227.74
366.19	227.81
366.57	227.87
366.95	227.86
367.33	227.86
367.71	227.86
368.09	227.86
368.47	227.84
368.85	227.82
369.23	227.84
369.61	227.81
369.99	227.81
370.37	227.81
370.75	227.80
371.13	227.72
371.51	227.69
371.89	227.66
372.27	227.59
372.65	227.57
373.03	227.54
373.41	227.49
373.78	227.48
374.16	227.38
374.54	227.27
374.92	227.20
375.30	227.12
375.68	227.04
376.06	226.99
376.44	226.95
376.82	226.88
377.19	226.80
377.57	226.74
377.95	226.64
378.33	226.56
378.71	226.45
379.09	226.44
379.47	226.37
379.84	226.28
380.22	226.20
380.60	226.10
380.98	226.04
381.36	225.95
381.73	225.82
382.11	225.77
382.49	225.75
382.87	225.69
383.25	225.61
383.62	225.69
384.00	225.64
384.38	225.60
384.76	225.57
385.13	225.56
385.51	225.49
385.89	225.44
386.27	225.41
386.64	225.40
387.02	225.34
387.40	225.29
387.78	225.24
388.15	225.22
388.53	225.18
388.91	225.14
389.29	225.10
389.66	225.12
390.04	225.08
390.42	225.04
390.79	225.06
391.17	225.06
391.55	224.89
391.92	224.86
392.30	224.83
392.68	224.81
393.05	224.79
393.43	224.78
393.81	224.78
394.18	224.77
394.56	224.76
394.94	224.78
395.31	224.80
395.69	224.89
396.06	224.91
396.44	224.96
396.82	224.96
397.19	225.05
397.57	225.04
397.95	225.09
398.32	225.08
398.70	225.11
399.07	225.17
399.45	225.25
399.82	225.29
400.20	225.35
400.58	225.40
400.95	225.41
401.33	225.48
401.70	225.61
402.08	225.69
402.45	225.76
402.83	225.87
403.20	225.94
403.58	225.99
403.95	226.14
404.33	226.28
404.71	226.36
405.08	226.50
405.46	226.64
405.83	226.78
406.21	226.92
406.58	227.08
406.96	227.21
407.33	227.39
407.70	227.57
408.08	227.84
408.45	228.05
408.83	228.28
409.20	228.50
409.58	228.66
409.95	228.89
410.33	229.17
410.70	229.42
411.08	229.73
411.45	230.02
411.82	230.33
412.20	230.68
412.57	231.13
412.95	231.43
413.32	231.84
413.69	232.24
414.07	232.69
414.44	233.15
414.82	233.63
415.19	234.16
415.56	234.70
415.94	235.20
416.31	235.84
416.68	236.46
417.06	237.18
417.43	237.89
417.81	238.69
418.18	239.44
418.55	240.26
418.93	241.13
419.30	242.04
419.67	242.94
420.04	243.87
420.42	244.82
420.79	246.03
421.16	247.16
421.54	248.33
421.91	249.56
422.28	250.81
422.66	252.14
423.03	253.46
423.40	254.85
423.77	256.26
424.15	257.67
424.52	259.14
424.89	260.76
425.26	262.34
425.64	263.74
426.01	265.36
426.38	267.05
426.75	268.73
427.13	270.45
427.50	272.24
427.87	274.13
428.24	276.02
428.61	277.74
428.99	279.69
429.36	281.76
429.73	283.77
430.10	285.77
430.47	287.82
430.85	289.92
431.22	292.12
431.59	294.51
431.96	296.76
432.33	299.26
432.70	301.59
433.08	304.34
433.45	306.93
433.82	309.52
434.19	312.38
434.56	315.16
434.93	317.76
435.30	320.40
435.68	323.29
436.05	326.12
436.42	328.88
436.79	331.40
437.16	334.12
437.53	336.95
437.90	339.74
438.27	342.41
438.64	345.16
439.01	347.70
439.38	349.93
439.75	352.08
440.13	354.56
440.50	356.87
440.87	358.71
441.24	360.68
441.61	362.76
441.98	364.20
442.35	366.00
442.72	367.83
443.09	369.58
443.46	370.49
443.83	371.06
444.20	371.60
444.57	372.46
444.94	372.75
445.31	373.12
445.68	373.44
446.05	373.54
446.42	373.21
446.79	372.84
447.16	372.37
447.53	372.06
447.90	370.94
448.27	369.77
448.64	368.23
449.01	367.11
449.37	365.23
449.74	363.40
450.11	361.17
450.48	358.77
450.85	356.31
451.22	354.25
451.59	352.25
451.96	350.32
452.33	347.72
452.70	345.40
453.07	342.56
453.43	339.73
453.80	337.02
454.17	334.40
454.54	331.92
454.91	329.24
455.28	326.58
455.65	324.11
456.02	321.73
456.38	319.60
456.75	316.98
457.12	314.73
457.49	312.54
457.86	310.41
458.23	308.58
458.59	306.55
458.96	304.46
459.33	302.61
459.70	300.77
460.07	299.27
460.43	297.53
460.80	295.96
461.17	294.55
461.54	293.07
461.91	291.63
462.27	290.14
462.64	288.87
463.01	287.51
463.38	286.19
463.74	284.79
464.11	283.63
464.48	282.61
464.85	281.52
465.21	280.59
465.58	279.69
465.95	278.57
466.32	277.66
466.68	276.77
467.05	275.86
467.42	274.98
467.78	274.03
468.15	273.21
468.52	272.55
468.88	271.69
469.25	270.89
469.62	270.26
469.98	269.64
470.35	269.03
470.72	268.48
471.08	267.85
471.45	267.32
471.82	266.83
472.18	266.20
472.55	265.77
472.92	265.29
473.28	264.82
473.65	264.41
474.02	263.95
474.38	263.62
474.75	263.34
475.11	262.97
475.48	262.75
475.85	262.49
476.21	262.24
476.58	262.07
476.94	261.94
477.31	261.79
477.67	261.63
478.04	261.55
478.41	261.50
478.77	261.57
479.14	261.53
479.50	261.53
479.87	261.64
480.23	261.73
480.60	261.82
480.96	261.88
481.33	262.07
481.69	262.29
482.06	262.47
482.42	262.68
482.79	262.99
483.15	263.29
483.52	263.67
483.88	264.04
484.25	264.46
484.61	264.93
484.98	265.38
485.34	265.95
485.71	266.53
486.07	267.12
486.44	267.70
486.80	268.43
487.17	269.19
487.53	270.02
487.90	270.91
488.26	271.86
488.62	272.89
488.99	273.90
489.35	274.94
489.72	276.08
490.08	277.28
490.44	278.49
490.81	279.80
491.17	281.16
491.54	282.64
491.90	284.19
492.26	285.86
492.63	287.61
492.99	289.37
493.36	291.32
493.72	293.34
494.08	295.43
494.45	297.68
494.81	300.00
495.17	302.38
495.54	304.89
495.90	307.54
496.26	310.32
496.63	313.27
496.99	316.36
497.35	319.61
497.72	323.02
498.08	326.55
498.44	330.25
498.80	334.19
499.17	338.21
499.53	342.36
499.89	346.69
500.26	351.14
500.62	355.77
500.98	360.65
501.34	365.68
501.71	371.03
502.07	376.44
502.43	382.05
502.79	387.85
503.16	393.94
503.52	400.21
503.88	406.61
504.24	413.21
504.60	420.10
504.97	427.24
505.33	434.49
505.69	442.19
506.05	449.87
506.41	457.66
506.78	465.73
507.14	474.14
507.50	482.76
507.86	491.77
508.22	500.95
508.59	510.14
508.95	519.72
509.31	529.47
509.67	539.49
510.03	549.65
510.39	560.18
510.75	570.85
511.12	581.66
511.48	592.80
511.84	604.17
512.20	615.54
512.56	627.32
512.92	639.37
513.28	651.63
513.64	664.06
514.00	676.72
514.37	689.63
514.73	702.59
515.09	715.61
515.45	728.76
515.81	742.20
516.17	756.02
516.53	770.05
516.89	784.08
517.25	798.06
517.61	812.42
517.97	826.77
518.33	841.13
518.69	855.82
519.05	870.75
519.41	885.75
519.77	901.13
520.13	916.50
520.49	931.88
520.85	947.02
521.21	962.51
521.57	978.63
521.93	994.21
522.29	1010.39
522.65	1026.44
523.01	1042.53
523.37	1058.39
523.73	1074.40
524.09	1090.34
524.45	1106.49
524.81	1122.99
525.17	1139.56
525.53	1156.22
525.89	1172.77
526.25	1189.47
526.61	1205.59
526.97	1222.12
527.33	1238.51
527.68	1254.84
528.04	1271.09
528.40	1287.46
528.76	1304.39
529.12	1320.79
529.48	1337.52
529.84	1353.33
530.20	1369.84
530.56	1386.53
530.91	1403.66
531.27	1420.18
531.63	1436.41
531.99	1452.72
532.35	1468.58
532.71	1484.39
533.07	1500.48
533.42	1516.31
533.78	1532.04
534.14	1548.11
534.50	1563.26
534.86	1578.86
535.21	1593.87
535.57	1609.45
535.93	1624.73
536.29	1639.32
536.65	1654.02
537.00	1668.50
537.36	1683.66
537.72	1697.85
538.08	1712.24
538.44	1725.98
538.79	1739.69
539.15	1752.98
539.51	1766.50
539.87	1780.61
540.22	1794.02
540.58	1807.50
540.94	1820.53
541.29	1833.15
541.65	1845.66
542.01	1858.58
542.37	1870.72
542.72	1882.91
543.08	1894.60
543.44	1906.94
543.79	1918.00
544.15	1928.95
544.51	1940.38
544.87	1951.09
545.22	1961.77
545.58	1971.78
545.94	1981.37
546.29	1991.09
546.65	2000.89
547.01	2010.02
547.36	2018.50
547.72	2026.89
548.07	2034.76
548.43	2042.85
548.79	2050.67
549.14	2058.20
549.50	2065.48
549.86	2072.97
550.21	2080.17
550.57	2087.29
550.92	2093.84
551.28	2100.87
551.64	2107.90
551.99	2114.19
552.35	2120.37
552.70	2126.60
553.06	2132.61
553.41	2138.88
553.77	2144.84
554.13	2150.92
554.48	2156.93
554.84	2162.47
555.19	2167.68
555.55	2172.80
555.90	2177.37
556.26	2182.51
556.61	2187.24
556.97	2191.72
557.32	2195.95
557.68	2200.06
558.03	2204.23
558.39	2207.73
558.74	2212.22
559.10	2215.98
559.45	2219.76
559.81	2224.08
560.16	2227.82
560.52	2231.06
560.87	2234.47
561.23	2237.20
561.58	2240.12
561.94	2242.83
562.29	2245.16
562.64	2247.91
563.00	2250.36
563.35	2253.86
563.71	2256.85
564.06	2259.86
564.42	2262.75
564.77	2265.37
565.12	2267.97
565.48	2270.08
565.83	2272.22
566.19	2273.83
566.54	2274.78
566.89	2276.10
567.25	2276.80
567.60	2278.16
567.96	2280.03
568.31	2280.99
568.66	2282.26
569.02	2283.01
569.37	2283.38
569.72	2284.45
570.08	2284.80
570.43	2285.16
570.78	2284.73
571.14	2283.47
571.49	2282.14
571.84	2281.71
572.20	2280.82
572.55	2279.81
572.90	2278.22
573.26	2276.95
573.61	2275.21
573.96	2273.79
574.31	2270.91
574.67	2268.03
575.02	2264.55
575.37	2261.08
575.72	2257.56
576.08	2254.16
576.43	2250.80
576.78	2247.42
577.13	2244.18
577.49	2241.04
577.84	2237.67
578.19	2233.92
578.54	2230.55
578.90	2226.84
579.25	2221.50
579.60	2216.76
579.95	2211.85
580.30	2207.10
580.66	2202.00
581.01	2197.17
581.36	2192.28
581.71	2188.27
582.06	2183.98
582.42	2179.71
582.77	2174.76
583.12	2170.35
583.47	2166.02
583.82	2161.31
584.17	2156.19
584.53	2151.03
584.88	2145.56
585.23	2139.93
585.58	2134.74
585.93	2129.30
586.28	2124.35
586.63	2119.59
586.98	2114.42
587.34	2109.83
587.69	2105.10
588.04	2100.13
588.39	2094.71
588.74	2088.27
589.09	2082.27
589.44	2075.74
589.79	2069.74
590.14	2064.10
590.49	2057.46
590.84	2050.95
591.19	2044.93
591.54	2038.62
591.89	2031.49
592.25	2024.95
592.60	2017.78
592.95	2010.31
593.30	2003.12
593.65	1995.78
594.00	1988.70
594.35	1981.67
594.70	1973.74
595.05	1966.67
595.40	1959.31
595.75	1951.87
596.10	1945.91
596.45	1939.36
596.80	1933.22
597.15	1926.81
597.50	1920.01
597.85	1913.73
598.19	1907.19
598.54	1900.48
598.89	1893.90
599.24	1888.03
599.59	1881.43
599.94	1875.27
600.29	1869.11
600.64	1862.52
600.99	1855.28
601.34	1848.72
601.69	1841.65
602.04	1834.94
602.39	1827.58
602.74	1821.00
603.08	1814.29
603.43	1807.73
603.78	1800.40
604.13	1793.19
604.48	1786.01
604.83	1779.16
605.18	1772.44
605.53	1764.68
605.87	1756.58
606.22	1749.22
606.57	1741.28
606.92	1733.88
607.27	1727.00
607.62	1720.19
607.96	1713.09
608.31	1706.70
608.66	1699.10
609.01	1691.78
609.36	1684.32
609.70	1676.39
610.05	1668.35
610.40	1660.80
610.75	1652.49
611.10	1645.01
611.44	1636.61
611.79	1628.62
612.14	1620.06
612.49	1610.83
612.83	1602.44
613.18	1594.34
613.53	1586.33
613.88	1577.87
614.22	1569.75
614.57	1561.01
614.92	1552.86
615.27	1545.39
615.61	1537.03
615.96	1528.98
616.31	1521.37
616.65	1513.95
617.00	1506.45
617.35	1498.77
617.70	1490.53
618.04	1481.99
618.39	1473.70
618.74	1466.18
619.08	1457.82
619.43	1450.16
619.78	1443.22
620.12	1436.14
620.47	1428.73
620.82	1420.74
621.16	1413.21
621.51	1405.44
621.85	1397.90
622.20	1389.43
622.55	1380.97
622.89	1373.10
623.24	1365.45
623.59	1357.88
623.93	1350.38
624.28	1343.13
624.62	1335.82
624.97	1328.68
625.32	1321.78
625.66	1314.76
626.01	1307.57
626.35	1300.30
626.70	1292.54
627.04	1284.83
627.39	1277.06
627.73	1269.65
628.08	1262.68
628.43	1255.56
628.77	1248.45
629.12	1241.01
629.46	1233.95
629.81	1226.45
630.15	1219.24
630.50	1212.00
630.84	1204.01
631.19	1196.05
631.53	1188.50
631.88	1180.78
632.22	1173.17
632.57	1166.02
632.91	1158.44
633.26	1151.12
633.60	1143.66
633.95	1136.59
634.29	1129.50
634.64	1122.78
634.98	1115.46
635.32	1108.37
635.67	1101.66
636.01	1094.99
636.36	1088.14
636.70	1081.54
637.05	1075.16
637.39	1068.64
637.73	1062.07
638.08	1056.20
638.42	1050.25
638.77	1043.84
639.11	1037.39
639.45	1031.00
639.80	1024.33
640.14	1018.04
640.49	1011.55
640.83	1005.34
641.17	999.19
641.52	992.95
641.86	986.55
642.20	980.69
642.55	974.28
642.89	967.86
643.23	961.28
643.58	955.55
643.92	949.40
644.26	943.34
644.61	937.25
644.95	931.20
645.29	924.65
645.64	917.93
645.98	911.62
646.32	905.64
646.66	899.54
647.01	893.73
647.35	887.94
647.69	881.98
648.04	876.35
648.38	870.55
648.72	864.65
649.06	858.61
649.41	852.68
649.75	846.83
650.09	840.97
650.43	835.24
650.78	828.99
651.12	822.99
651.46	817.30
651.80	811.70
652.14	806.38
652.49	800.96
652.83	795.83
653.17	790.29
653.51	784.58
653.85	779.18
654.20	773.60
654.54	767.65
654.88	761.91
655.22	755.98
655.56	750.26
655.90	744.69
656.25	739.46
656.59	734.09
656.93	728.96
657.27	723.80
657.61	718.30
657.95	713.27
658.29	708.26
658.64	702.94
658.98	697.60
659.32	692.11
659.66	686.93
660.00	681.68
660.34	676.65
660.68	671.81
661.02	666.86
661.36	662.16
661.70	657.67
662.05	653.36
662.39	649.16
662.73	644.66
663.07	640.32
663.41	635.87
663.75	631.41
664.09	626.86
664.43	622.45
664.77	618.35
665.11	614.11
665.45	609.90
665.79	605.85
666.13	601.70
666.47	597.55
666.81	593.37
667.15	589.19
667.49	585.23
667.83	581.36
668.17	577.39
668.51	573.34
668.85	569.30
669.19	565.41
669.53	561.57
669.87	557.71
670.21	554.05
670.55	550.40
670.89	546.98
671.23	543.53
671.57	539.98
671.91	536.50
672.25	532.98
672.58	529.52
672.92	526.04
673.26	522.84
673.60	519.74
673.94	516.69
674.28	513.75
674.62	510.86
674.96	507.83
675.30	504.94
675.64	502.03
675.97	499.23
676.31	496.38
676.65	493.49
676.99	490.79
677.33	487.88
677.67	485.01
678.01	482.00
678.34	479.07
678.68	476.19
679.02	473.40
679.36	470.57
679.70	467.81
680.04	465.09
680.37	462.28
680.71	459.43
681.05	456.77
681.39	454.09
681.73	451.40
682.06	448.83
682.40	446.27
682.74	443.71
683.08	441.18
683.42	438.59
683.75	436.04
684.09	433.46
684.43	431.01
684.77	428.62
685.10	426.22
685.44	423.88
685.78	421.60
686.12	419.34
686.45	417.06
686.79	414.75
687.13	412.55
687.46	410.32
687.80	408.19
688.14	405.97
688.48	403.89
688.81	401.71
689.15	399.55
689.49	397.32
689.82	395.23
690.16	393.13
690.50	391.18
690.83	389.24
691.17	387.27
691.51	385.37
691.84	383.53
692.18	381.66
692.52	379.69
692.85	377.72
693.19	375.81
693.52	374.00
693.86	372.22
694.20	370.43
694.53	368.67
694.87	366.83
695.21	365.04
695.54	363.19
695.88	361.41
696.21	359.64
696.55	358.04
696.88	356.33
697.22	354.66
697.56	352.98
697.89	351.34
698.23	349.75
698.56	348.14
698.90	346.53
699.23	344.91
699.57	343.33
699.90	341.85
700.24	340.26
700.58	338.72
700.91	337.21
701.25	335.75
701.58	334.39
701.92	333.03
702.25	331.65
702.59	330.29
702.92	328.98
703.26	327.74
703.59	326.42
703.93	325.29
704.26	324.07
704.60	322.81
704.93	321.53
705.26	320.29
705.60	319.08
705.93	317.89
706.27	316.81
706.60	315.80
706.94	314.70
707.27	313.60
707.61	312.55
707.94	311.54
708.27	310.45
708.61	309.36
708.94	308.34
709.28	307.39
709.61	306.46
709.94	305.48
710.28	304.45
710.61	303.46
710.95	302.35
711.28	301.41
711.61	300.45
711.95	299.53
712.28	298.60
712.61	297.64
712.95	296.71
713.28	295.81
713.61	294.90
713.95	294.02
714.28	293.23
714.61	292.38
714.95	291.54
715.28	290.71
715.61	289.85
715.95	289.03
716.28	288.16
716.61	287.27
716.95	286.46
717.28	285.70
717.61	284.96
717.94	284.24
718.28	283.44
718.61	282.72
718.94	282.02
719.27	281.35
719.61	280.70
719.94	280.05
720.27	279.36
720.60	278.68
720.94	278.07
721.27	277.46
721.60	276.87
721.93	276.24
722.27	275.70
722.60	275.13
722.93	274.51
723.26	273.97
723.59	273.42
723.93	272.89
724.26	272.33
724.59	271.73
724.92	271.21
725.25	270.72
725.59	270.18
725.92	269.68
726.25	269.16
726.58	268.65
726.91	268.15
727.24	267.64
727.57	267.13
727.91	266.57
728.24	266.06
728.57	265.58
728.90	265.11
729.23	264.58
729.56	264.16
729.89	263.69
730.22	263.20
730.55	262.72
730.89	262.28
731.22	261.87
731.55	261.44
731.88	261.00
732.21	260.52
732.54	260.09
732.87	259.67
733.20	259.22
733.53	258.85
733.86	258.45
734.19	258.05
734.52	257.70
734.85	257.41
735.18	257.02
735.51	256.66
735.84	256.29
736.17	255.93
736.50	255.49
736.83	255.26
737.16	254.91
737.49	254.57
737.82	254.18
738.15	253.85
738.48	253.50
738.81	253.15
739.14	252.86
739.47	252.54
739.80	252.20
740.13	251.91
740.46	251.57
740.79	251.24
741.12	250.96
741.45	250.64
741.78	250.29
742.11	249.99
742.44	249.66
742.77	249.34
743.10	249.07
743.43	248.81
743.75	248.41
744.08	248.29
744.41	248.01
744.74	247.78
745.07	247.47
745.40	247.24
745.73	247.00
746.06	246.68
746.39	246.42
746.71	246.20
747.04	245.92
747.37	245.66
747.70	245.46
748.03	245.19
748.36	245.01
748.68	244.77
749.01	244.54
749.34	244.30
749.67	244.10
750.00	243.90
750.33	243.73
750.65	243.52
750.98	243.15
751.31	242.93
751.64	242.69
751.97	242.55
752.29	242.34
752.62	242.10
752.95	241.95
753.28	241.75
753.60	241.52
753.93	241.36
754.26	241.17
754.59	240.91
754.91	240.71
755.24	240.48
755.57	240.28
755.90	240.09
756.22	239.95
756.55	239.74
756.88	239.53
757.20	239.30
757.53	239.10
757.86	238.97
758.19	238.84
758.51	238.68
758.84	238.47
759.17	238.30
759.49	238.14
759.82	238.05
760.15	237.93
760.47	237.81
760.80	237.66
761.13	237.55
761.45	237.42
761.78	237.27
762.11	237.18
762.43	237.04
762.76	236.91
763.08	236.76
763.41	236.64
763.74	236.52
764.06	236.38
764.39	236.26
764.71	236.12
765.04	235.97
765.37	235.86
765.69	235.76
766.02	235.67
766.34	235.56
766.67	235.38
767.00	235.22
767.32	235.13
767.65	235.06
767.97	234.95
768.30	234.85
768.62	234.74
768.95	234.61
769.27	234.48
769.60	234.37
769.92	234.25
770.25	234.15
770.57	234.03
770.90	233.92
771.22	233.82
771.55	233.75
771.87	233.66
772.20	233.54
772.52	233.52
772.85	233.48
773.17	233.39
773.50	233.28
773.82	233.19
774.15	233.08
774.47	232.93
774.80	232.84
775.12	232.73
775.45	232.62
775.77	232.51
776.09	232.46
776.42	232.38
776.74	232.32
777.07	232.21
777.39	232.11
777.72	232.03
778.04	231.97
778.36	231.86
778.69	231.80
779.01	231.74
779.33	231.53
779.66	231.37
779.98	231.27
780.31	231.22
780.63	231.19
780.95	231.14
781.28	231.06
781.60	230.96
781.92	230.88
782.25	230.86
782.57	230.79
782.89	230.70
783.22	230.63
783.54	230.58
783.86	230.52
784.19	230.48
784.51	230.45
784.83	230.37
785.16	230.31
785.48	230.24
785.80	230.18
786.12	230.15
786.45	230.08
786.77	230.07
787.09	230.00
787.42	229.94
787.74	229.90
788.06	229.88
788.38	229.83
788.71	229.80
789.03	229.77
789.35	229.76
789.67	229.69
789.99	229.66
790.32	229.60
790.64	229.58
790.96	229.62
791.28	229.56
791.61	229.55
791.93	229.52
792.25	229.46
792.57	229.47
792.89	229.41
793.21	229.40
793.54	229.35
793.86	229.30
794.18	229.27
794.50	229.19
794.82	229.15
795.14	229.14
795.47	229.13
795.79	229.09
796.11	229.02
796.43	228.99
796.75	228.98
797.07	228.98
797.39	228.94
797.71	228.84
798.04	228.83
798.36	228.79
798.68	228.78
799.00	228.78
799.32	228.74
799.64	228.75
799.96	228.72
800.28	228.72
800.60	228.67
800.92	228.64
801.24	228.63
801.56	228.61
801.89	228.56
802.21	228.52
802.53	228.47
802.85	228.46
803.17	228.50
803.49	228.42
803.81	228.32
804.13	228.31
804.45	228.28
804.77	228.24
805.09	228.21
805.41	228.17
805.73	228.09
806.05	227.99
806.37	227.97
806.69	227.96
807.01	227.89
807.33	227.90
807.65	227.83
807.97	227.85
808.28	227.80
808.60	227.78
808.92	227.74
809.24	227.75
809.56	227.68
809.88	227.59
810.20	227.58
810.52	227.59
810.84	227.51
811.16	227.44
811.48	227.39
811.80	227.37
812.12	227.31
812.43	227.33
812.75	227.33
813.07	227.27
813.39	227.23
813.71	227.21
814.03	227.17
814.35	227.17
814.67	227.08
814.98	227.05
815.30	227.00
815.62	227.00
815.94	226.92
816.26	226.98
816.58	226.95
816.89	226.95
817.21	226.92
817.53	226.93
817.85	226.91
818.17	226.88
818.48	226.83
818.80	226.82
819.12	226.76
819.44	226.73
819.76	226.70
820.07	226.65
820.39	226.63
820.71	226.60
821.03	226.55
821.34	226.56
821.66	226.54
821.98	226.55
822.30	226.50
822.61	226.56
822.93	226.52
823.25	226.51
823.57	226.47
823.88	226.47
824.20	226.45
824.52	226.47
824.83	226.50
825.15	226.49
825.47	226.51
825.79	226.53
826.10	226.53
826.42	226.53
826.74	226.53
827.05	226.50
827.37	226.50
827.69	226.51
828.00	226.50
828.32	226.49
828.64	226.46
828.95	226.53
829.27	226.49
829.58	226.47
829.90	226.50
830.22	226.52
830.53	226.49
830.85	226.51
831.17	226.49
831.48	226.49
831.80	226.48
832.11	226.48
832.43	226.48
832.75	226.50
833.06	226.56
833.38	226.53
833.69	226.56
834.01	226.59
834.32	226.58
834.64	226.57
834.96	226.58
835.27	226.56
835.59	226.49
835.90	226.46
836.22	226.46
836.53	226.44
836.85	226.44
837.16	226.56
837.48	226.55
837.79	226.58
838.11	226.56
838.42	226.54
838.74	226.55
839.05	226.54
839.37	226.53
839.68	226.45
840.00	226.46
840.31	226.49
840.63	226.49
840.94	226.51
841.26	226.48
841.57	226.47
841.88	226.49
842.20	226.49
842.51	226.46
842.83	226.43
843.14	226.50
843.46	226.48
843.77	226.41
844.08	226.42
844.40	226.39
844.71	226.37
845.03	226.38
845.34	226.34
845.65	226.32
845.97	226.29
846.28	226.28
846.60	226.26
846.91	226.19
847.22	226.15
847.54	226.14
847.85	226.12
848.16	226.11
848.48	226.08
848.79	226.11
849.10	226.13
849.42	226.14
849.73	226.06
850.04	226.02
850.36	225.95
850.67	225.96
850.98	225.92
851.30	225.93
851.61	225.88
851.92	225.89
852.23	225.91
852.55	225.91
852.86	225.91
853.17	225.93
853.49	225.94
853.80	225.94
854.11	225.95
854.42	225.96
854.74	225.94
855.05	225.98
855.36	225.91
855.67	225.91
855.99	225.88
856.30	225.99
856.61	225.98
856.92	225.97
857.23	225.93
857.55	225.92
857.86	225.91
858.17	225.93
858.48	225.91
858.79	225.92
859.11	225.93
859.42	225.94
859.73	225.93
860.04	225.96
860.35	225.92
860.66	225.89
860.98	225.91
861.29	225.92
861.60	225.89
861.91	225.92
862.22	225.89
862.53	225.88
862.84	225.75
863.16	225.78
863.47	225.77
863.78	225.77
864.09	225.79
864.40	225.78
864.71	225.78
865.02	225.76
865.33	225.72
865.64	225.70
865.95	225.68
866.27	225.73
866.58	225.70
866.89	225.73
867.20	225.74
867.51	225.73
867.82	225.74
868.13	225.77
868.44	225.74
868.75	225.78
869.06	225.81
869.37	225.85
869.68	225.82
869.99	225.85
870.30	225.86
870.61	225.85
870.92	225.81
871.23	225.81
871.54	225.83
871.85	225.89
872.16	225.91
872.47	225.89
872.78	225.85
873.09	225.85
873.40	225.82
873.71	225.83
874.02	225.82
874.33	225.82
874.64	225.80
874.95	225.86
875.26	225.81
875.56	225.81
875.87	225.78
876.18	225.79
876.49	225.90
876.80	225.89
877.11	225.92
877.42	225.95
877.73	225.98
878.04	225.96
878.35	225.93
878.66	225.94
878.96	225.92
879.27	225.92
879.58	225.93
879.89	225.96
880.20	226.00
880.51	226.00
880.82	226.01
881.12	226.01
881.43	225.96
881.74	225.95
882.05	225.91
882.36	225.95
882.67	225.98
882.97	225.84
883.28	225.84
883.59	225.79
883.90	225.79
884.21	225.79
884.51	225.79
884.82	225.79
885.13	225.77
885.44	225.78
885.74	225.77
886.05	225.76
886.36	225.74
886.67	225.68
886.98	225.68
887.28	225.68
887.59	225.65
887.90	225.62
888.20	225.65
888.51	225.67
888.82	225.64
889.13	225.60
889.43	225.68
889.74	225.68
890.05	225.69
890.35	225.67
890.66	225.66
890.97	225.65
891.28	225.64
891.58	225.62
891.89	225.64
892.20	225.63
892.50	225.62
892.81	225.58
893.12	225.56
893.42	225.52
893.73	225.50
894.04	225.50
894.34	225.52
894.65	225.51
894.95	225.47
895.26	225.44
895.57	225.46
895.87	225.39
896.18	225.38
896.48	225.38
896.79	225.39
897.10	225.41
897.40	225.39
897.71	225.38
898.01	225.41
898.32	225.39
898.63	225.40
898.93	225.40
899.24	225.42
899.54	225.38
899.85	225.37
900.15	225.35
900.46	225.34
900.76	225.38
901.07	225.36
901.38	225.39
901.68	225.43
901.99	225.38
902.29	225.36
902.60	225.36
902.90	225.37
903.21	225.35
903.51	225.29
903.82	225.33
904.12	225.33
904.43	225.29
904.73	225.31
905.03	225.28
905.34	225.39
905.64	225.37
905.95	225.40
906.25	225.41
906.56	225.43
906.86	225.44
907.17	225.38
907.47	225.42
907.77	225.41
908.08	225.36
908.38	225.40
908.69	225.45
908.99	225.44
909.30	225.43
909.60	225.42
909.90	225.45
910.21	225.40
910.51	225.40
910.81	225.43
911.12	225.45
911.42	225.45
911.73	225.34
912.03	225.37
912.33	225.43
912.64	225.44
912.94	225.42
913.24	225.43
913.55	225.46
913.85	225.45
914.15	225.45
914.46	225.47
914.76	225.46
915.06	225.48
915.37	225.48
915.67	225.50
915.97	225.52
916.27	225.53
916.58	225.52
916.88	225.52
917.18	225.50
917.49	225.54
917.79	225.54
918.09	225.57
918.39	225.58
918.70	225.57
919.00	225.54
919.30	225.61
919.60	225.58
919.91	225.57
920.21	225.56
920.51	225.55
920.81	225.58
921.12	225.58
921.42	225.53
921.72	225.53
922.02	225.53
922.32	225.53
922.63	225.48
922.93	225.55
923.23	225.54
923.53	225.55
923.83	225.48
924.13	225.50
924.44	225.45
924.74	225.45
925.04	225.45
925.34	225.50
925.64	225.45
925.94	225.47
926.24	225.52
926.55	225.46
926.85	225.50
927.15	225.46
927.45	225.47
927.75	225.46
928.05	225.44
928.35	225.43
928.65	225.44
928.95	225.45
929.26	225.39
929.56	225.41
929.86	225.40
930.16	225.38
930.46	225.36
930.76	225.39
931.06	225.33
931.36	225.28
931.66	225.25
931.96	225.26
932.26	225.23
932.56	225.17
932.86	225.20
933.16	225.13
933.46	225.11
933.76	225.06
934.06	225.10
934.36	225.13
934.66	225.13
934.96	225.10
935.26	225.12
935.56	225.15
935.86	225.12
936.16	225.07
936.46	225.08
936.76	225.12
937.06	225.08
937.36	225.12
937.66	225.13
937.96	225.12
938.26	225.09
938.56	225.07
938.86	225.06
939.16	225.09
939.46	225.12
939.76	225.16
940.06	225.16
940.35	225.12
940.65	225.05
940.95	225.08
941.25	225.04
941.55	225.04
941.85	225.04
942.15	225.07
942.45	225.13
942.75	225.11
943.04	225.08
943.34	225.11
943.64	225.09
943.94	225.08
944.24	225.10
944.54	225.12
944.84	225.12
945.13	225.17
945.43	225.12
945.73	225.12
946.03	225.10
946.33	225.09
946.62	225.12
946.92	225.12
947.22	225.11
947.52	225.12
947.82	225.12
948.11	225.11
948.41	225.08
948.71	225.08
949.01	225.07
949.31	225.10
949.60	225.12
949.90	225.14
950.20	225.15
950.50	225.15
950.79	225.14
951.09	225.19
951.39	225.16
951.69	225.18
951.98	225.20
952.28	225.24
952.58	225.25
952.87	225.26
953.17	225.28
953.47	225.28
953.76	225.28
954.06	225.28
954.36	225.27
954.66	225.27
954.95	225.26
955.25	225.30
955.55	225.27
955.84	225.25
956.14	225.27
956.44	225.29
956.73	225.27
957.03	225.29
957.32	225.28
957.62	225.29
957.92	225.32
958.21	225.31
958.51	225.39
958.81	225.42
959.10	225.42
959.40	225.45
959.69	225.48
959.99	225.51
960.29	225.51
960.58	225.48
960.88	225.49
961.17	225.50
961.47	225.51
961.76	225.48
962.06	225.47
962.36	225.45
962.65	225.43
962.95	225.41
963.24	225.40
963.54	225.42
963.83	225.43
964.13	225.44
964.42	225.43
964.72	225.37
965.01	225.38
965.31	225.39
965.60	225.37
965.90	225.41
966.19	225.38
966.49	225.40
966.78	225.42
967.08	225.45
967.37	225.42
967.67	225.39
967.96	225.44
968.26	225.44
968.55	225.46
968.85	225.47
969.14	225.48
969.43	225.45
969.73	225.43
970.02	225.38
970.32	225.32
970.61	225.31
970.91	225.27
971.20	225.24
971.49	225.18
971.79	225.19
972.08	225.10
972.38	225.11
972.67	225.09
972.96	225.12
973.26	225.08
973.55	225.13
973.85	225.11
974.14	225.07
974.43	225.08
974.73	225.09
975.02	225.06
975.31	225.08
975.61	225.07
975.90	225.03
976.19	225.00
976.49	225.01
976.78	225.00
977.07	224.98
977.37	224.98
977.66	224.99
977.95	224.97
978.24	225.00
978.54	225.00
978.83	225.04
979.12	225.02
979.42	224.99
979.71	224.96
980.00	224.99
980.29	225.05
980.59	225.02
980.88	225.01
981.17	225.02
981.46	225.01
981.76	225.02
982.05	225.10
982.34	225.13
982.63	225.14
982.93	225.16
983.22	225.19
983.51	225.18
983.80	225.20
984.09	225.19
984.39	225.17
984.68	225.15
984.97	225.12
985.26	225.10
985.55	225.11
985.85	225.12
986.14	225.10
986.43	225.07
986.72	225.11
987.01	225.08
987.30	225.06
987.59	225.07
987.89	225.08
988.18	225.05
988.47	225.09
988.76	225.12
989.05	225.11
989.34	225.12
989.63	225.16
989.92	225.11
990.22	225.14
990.51	225.12
990.80	225.12
991.09	225.14
991.38	225.17
991.67	225.20
991.96	225.19
992.25	225.23
992.54	225.21
992.83	225.20
993.12	225.24
993.41	225.26
993.70	225.29
993.99	225.29
994.28	225.30
994.58	225.31
994.87	225.30
995.16	225.30
995.45	225.28
995.74	225.24
996.03	225.31
996.32	225.32
996.61	225.39
996.90	225.39
997.19	225.38
997.48	225.39
997.77	225.35
998.06	225.34
998.34	225.30
998.63	225.32
998.92	225.29
999.21	225.28
999.50	225.27
999.79	225.25
1000.08	225.26
1000.37	225.25
1000.66	225.21
1000.95	225.21
1001.24	225.22
1001.53	225.23
1001.82	225.22
1002.11	225.17
1002.40	225.16
1002.68	225.14
1002.97	225.23
1003.26	225.21
1003.55	225.17
1003.84	225.21
1004.13	225.27
1004.42	225.26
1004.71	225.24
1004.99	225.22
1005.28	225.24
1005.57	225.22
1005.86	225.22
1006.15	225.21
1006.44	225.23
1006.72	225.23
1007.01	225.22
1007.30	225.19
1007.59	225.17
1007.88	225.19
1008.17	225.21
1008.45	225.20
1008.74	225.20
1009.03	225.13
1009.32	225.10
1009.60	225.11
1009.89	225.09
1010.18	225.06
1010.47	225.08
1010.76	225.06
1011.04	225.09
1011.33	225.16
1011.62	225.18
1011.91	225.15
1012.19	225.15
1012.48	225.12
1012.77	225.15
1013.05	225.18
1013.34	225.20
1013.63	225.20
1013.92	225.18
1014.20	225.16
1014.49	225.16
1014.78	225.16
1015.06	225.15
1015.35	225.16
1015.64	225.18
1015.92	225.20
1016.21	225.18
1016.50	225.19
1016.78	225.23
1017.07	225.24
1017.36	225.14
1017.64	225.09
1017.93	225.15
1018.22	225.13
1018.50	225.14
1018.79	225.11
1019.08	225.08
1019.36	225.06
1019.65	225.04
1019.93	225.08
1020.22	225.11
1020.51	225.17
1020.79	225.15
1021.08	224.64
1021.36	225.05
1021.65	225.05
1021.94	225.33
1022.22	224.65
1022.51	224.51
1022.79	225.61
1023.08	225.34
1023.36	226.55
1023.65	225.10
>>>>>End Processed Spectral Data<<<<<
