SpectraSuite Data File
++++++++++++++++++++++++++++++++++++
Date: Fri Feb 01 18:13:58 EST 2013
User: group
Dark Spectrum Present: No
Reference Spectrum Present: No
Number of Sampled Component Spectra: 1
Spectrometers: USB2E7196
Integration Time (usec): 35000 (USB2E7196)
Spectra Averaged: 100 (USB2E7196)
Boxcar Smoothing: 10 (USB2E7196)
Correct for Electrical Dark: No (USB2E7196)
Strobe/Lamp Enabled: No (USB2E7196)
Correct for Detector Non-linearity: No (USB2E7196)
Correct for Stray Light: No (USB2E7196)
Number of Pixels in Processed Spectrum: 2048
>>>>>Begin Processed Spectral Data<<<<<
339.09	0.00
339.48	213.48
339.86	214.62
340.24	216.74
340.63	217.30
341.01	220.21
341.39	220.31
341.78	221.43
342.16	222.63
342.54	222.62
342.93	211.75
343.31	222.44
343.69	222.98
344.07	223.46
344.46	223.90
344.84	224.29
345.22	224.52
345.60	224.79
345.99	224.99
346.37	225.11
346.75	225.25
347.13	225.31
347.52	225.37
347.90	225.43
348.28	225.46
348.66	225.52
349.05	225.54
349.43	225.56
349.81	225.61
350.19	225.65
350.57	225.70
350.96	225.76
351.34	225.84
351.72	225.94
352.10	226.00
352.48	226.02
352.87	226.08
353.25	226.16
353.63	226.21
354.01	226.26
354.39	226.39
354.77	226.45
355.15	226.55
355.54	226.60
355.92	226.63
356.30	226.74
356.68	226.87
357.06	226.90
357.44	226.95
357.82	227.02
358.20	227.10
358.58	227.16
358.97	227.19
359.35	227.30
359.73	227.34
360.11	227.41
360.49	227.46
360.87	227.49
361.25	227.55
361.63	227.61
362.01	227.65
362.39	227.62
362.77	227.67
363.15	227.67
363.53	227.68
363.91	227.70
364.29	227.69
364.67	227.63
365.05	227.61
365.43	227.62
365.81	227.65
366.19	227.69
366.57	227.71
366.95	227.71
367.33	227.66
367.71	227.64
368.09	227.63
368.47	227.63
368.85	227.62
369.23	227.60
369.61	227.54
369.99	227.55
370.37	227.56
370.75	227.59
371.13	227.54
371.51	227.49
371.89	227.47
372.27	227.41
372.65	227.34
373.03	227.33
373.41	227.29
373.78	227.24
374.16	227.13
374.54	227.07
374.92	227.02
375.30	226.99
375.68	226.91
376.06	226.87
376.44	226.80
376.82	226.76
377.19	226.71
377.57	226.66
377.95	226.59
378.33	226.53
378.71	226.39
379.09	226.36
379.47	226.34
379.84	226.27
380.22	226.22
380.60	226.17
380.98	226.12
381.36	226.03
381.73	225.97
382.11	225.94
382.49	225.92
382.87	225.86
383.25	225.81
383.62	225.88
384.00	225.82
384.38	225.78
384.76	225.75
385.13	225.73
385.51	225.71
385.89	225.63
386.27	225.61
386.64	225.61
387.02	225.57
387.40	225.51
387.78	225.49
388.15	225.48
388.53	225.44
388.91	225.42
389.29	225.43
389.66	225.40
390.04	225.40
390.42	225.40
390.79	225.38
391.17	225.33
391.55	225.20
391.92	225.21
392.30	225.21
392.68	225.17
393.05	225.19
393.43	225.21
393.81	225.25
394.18	225.24
394.56	225.24
394.94	225.27
395.31	225.29
395.69	225.37
396.06	225.40
396.44	225.42
396.82	225.44
397.19	225.53
397.57	225.58
397.95	225.62
398.32	225.62
398.70	225.70
399.07	225.82
399.45	225.92
399.82	225.98
400.20	226.06
400.58	226.14
400.95	226.14
401.33	226.24
401.70	226.38
402.08	226.47
402.45	226.57
402.83	226.68
403.20	226.79
403.58	226.86
403.95	226.98
404.33	227.14
404.71	227.28
405.08	227.46
405.46	227.59
405.83	227.73
406.21	227.89
406.58	228.05
406.96	228.23
407.33	228.40
407.70	228.61
408.08	228.91
408.45	229.16
408.83	229.44
409.20	229.68
409.58	229.91
409.95	230.23
410.33	230.57
410.70	230.90
411.08	231.27
411.45	231.67
411.82	232.09
412.20	232.55
412.57	233.09
412.95	233.52
413.32	234.05
413.69	234.62
414.07	235.20
414.44	235.86
414.82	236.50
415.19	237.23
415.56	238.01
415.94	238.79
416.31	239.69
416.68	240.59
417.06	241.57
417.43	242.47
417.81	243.55
418.18	244.63
418.55	245.80
418.93	247.01
419.30	248.28
419.67	249.57
420.04	250.93
420.42	252.30
420.79	253.94
421.16	255.53
421.54	257.16
421.91	258.90
422.28	260.65
422.66	262.56
423.03	264.39
423.40	266.23
423.77	268.17
424.15	270.18
424.52	272.22
424.89	274.48
425.26	276.71
425.64	278.75
426.01	281.00
426.38	283.32
426.75	285.66
427.13	288.11
427.50	290.65
427.87	293.26
428.24	295.88
428.61	298.38
428.99	301.16
429.36	304.15
429.73	307.06
430.10	309.96
430.47	312.83
430.85	315.85
431.22	319.05
431.59	322.39
431.96	325.57
432.33	329.11
432.70	332.50
433.08	336.43
433.45	340.08
433.82	343.75
434.19	347.85
434.56	351.85
434.93	355.54
435.30	359.27
435.68	363.38
436.05	367.38
436.42	371.30
436.79	374.86
437.16	378.67
437.53	382.68
437.90	386.66
438.27	390.55
438.64	394.54
439.01	398.17
439.38	401.35
439.75	404.45
440.13	407.97
440.50	411.25
440.87	413.92
441.24	416.75
441.61	419.90
441.98	421.96
442.35	424.60
442.72	427.31
443.09	429.86
443.46	431.29
443.83	432.12
444.20	432.84
444.57	434.02
444.94	434.45
445.31	434.91
445.68	435.36
446.05	435.50
446.42	434.96
446.79	434.38
447.16	433.73
447.53	433.27
447.90	431.63
448.27	429.98
448.64	427.71
449.01	426.09
449.37	423.21
449.74	420.56
450.11	417.23
450.48	413.68
450.85	410.10
451.22	407.06
451.59	404.19
451.96	401.45
452.33	397.75
452.70	394.40
453.07	390.40
453.43	386.32
453.80	382.36
454.17	378.61
454.54	375.07
454.91	371.26
455.28	367.41
455.65	363.92
456.02	360.39
456.38	357.35
456.75	353.57
457.12	350.43
457.49	347.27
457.86	344.28
458.23	341.64
458.59	338.75
458.96	335.73
459.33	333.11
459.70	330.43
460.07	328.33
460.43	325.89
460.80	323.57
461.17	321.50
461.54	319.37
461.91	317.32
462.27	315.26
462.64	313.51
463.01	311.64
463.38	309.73
463.74	307.85
464.11	306.18
464.48	304.73
464.85	303.15
465.21	301.91
465.58	300.56
465.95	298.98
466.32	297.68
466.68	296.44
467.05	295.20
467.42	293.94
467.78	292.57
468.15	291.30
468.52	290.34
468.88	289.13
469.25	288.02
469.62	287.12
469.98	286.11
470.35	285.20
470.72	284.31
471.08	283.40
471.45	282.57
471.82	281.77
472.18	280.89
472.55	280.21
472.92	279.47
473.28	278.82
473.65	278.18
474.02	277.50
474.38	276.96
474.75	276.45
475.11	275.91
475.48	275.52
475.85	275.16
476.21	274.81
476.58	274.48
476.94	274.23
477.31	273.92
477.67	273.65
478.04	273.41
478.41	273.25
478.77	273.21
479.14	273.10
479.50	273.03
479.87	273.05
480.23	273.10
480.60	273.03
480.96	273.01
481.33	273.16
481.69	273.30
482.06	273.45
482.42	273.59
482.79	273.82
483.15	274.11
483.52	274.45
483.88	274.77
484.25	275.17
484.61	275.57
484.98	275.99
485.34	276.50
485.71	277.09
486.07	277.69
486.44	278.25
486.80	278.96
487.17	279.69
487.53	280.52
487.90	281.38
488.26	282.39
488.62	283.46
488.99	284.48
489.35	285.57
489.72	286.74
490.08	287.97
490.44	289.28
490.81	290.67
491.17	292.11
491.54	293.65
491.90	295.25
492.26	296.99
492.63	298.88
492.99	300.80
493.36	302.83
493.72	305.01
494.08	307.30
494.45	309.70
494.81	312.24
495.17	314.85
495.54	317.63
495.90	320.49
496.26	323.43
496.63	326.56
496.99	329.91
497.35	333.35
497.72	337.02
498.08	340.81
498.44	344.72
498.80	348.98
499.17	353.34
499.53	357.81
499.89	362.52
500.26	367.33
500.62	372.34
500.98	377.60
501.34	383.02
501.71	388.68
502.07	394.54
502.43	400.57
502.79	406.85
503.16	413.35
503.52	420.11
503.88	427.02
504.24	434.23
504.60	441.66
504.97	449.31
505.33	457.18
505.69	465.53
506.05	473.93
506.41	482.34
506.78	491.20
507.14	500.38
507.50	509.79
507.86	519.56
508.22	529.54
508.59	539.53
508.95	549.97
509.31	560.64
509.67	571.57
510.03	582.71
510.39	594.20
510.75	605.95
511.12	617.82
511.48	630.12
511.84	642.62
512.20	655.14
512.56	668.19
512.92	681.43
513.28	694.95
513.64	708.60
514.00	722.51
514.37	736.59
514.73	750.79
515.09	765.06
515.45	779.58
515.81	794.42
516.17	809.73
516.53	825.19
516.89	840.81
517.25	856.38
517.61	872.27
517.97	888.15
518.33	904.08
518.69	920.36
519.05	936.94
519.41	953.75
519.77	970.96
520.13	988.14
520.49	1005.28
520.85	1022.22
521.21	1039.69
521.57	1057.81
521.93	1075.33
522.29	1093.61
522.65	1111.81
523.01	1129.92
523.37	1147.89
523.73	1166.06
524.09	1184.14
524.45	1202.28
524.81	1220.95
525.17	1239.69
525.53	1258.59
525.89	1277.51
526.25	1296.53
526.61	1314.94
526.97	1333.78
527.33	1352.35
527.68	1371.04
528.04	1389.70
528.40	1408.47
528.76	1427.73
529.12	1446.54
529.48	1465.72
529.84	1483.94
530.20	1502.74
530.56	1522.05
530.91	1541.86
531.27	1561.01
531.63	1579.75
531.99	1598.81
532.35	1617.22
532.71	1635.64
533.07	1654.50
533.42	1672.87
533.78	1691.44
534.14	1710.22
534.50	1728.03
534.86	1746.44
535.21	1764.11
535.57	1782.52
535.93	1800.62
536.29	1817.96
536.65	1835.52
537.00	1852.81
537.36	1870.73
537.72	1887.88
538.08	1905.00
538.44	1921.27
538.79	1937.68
539.15	1953.87
539.51	1970.19
539.87	1987.14
540.22	2003.44
540.58	2019.79
540.94	2035.68
541.29	2051.07
541.65	2066.39
542.01	2082.27
542.37	2097.36
542.72	2112.45
543.08	2126.99
543.44	2142.12
543.79	2155.93
544.15	2169.43
544.51	2183.72
544.87	2197.29
545.22	2210.63
545.58	2223.42
545.94	2235.67
546.29	2248.16
546.65	2260.73
547.01	2272.51
547.36	2283.68
547.72	2294.69
548.07	2304.98
548.43	2315.60
548.79	2325.91
549.14	2335.79
549.50	2345.41
549.86	2355.34
550.21	2364.95
550.57	2374.28
550.92	2383.03
551.28	2392.42
551.64	2401.99
551.99	2410.68
552.35	2419.00
552.70	2427.42
553.06	2435.60
553.41	2444.19
553.77	2452.12
554.13	2460.26
554.48	2468.50
554.84	2476.27
555.19	2483.28
555.55	2490.41
555.90	2496.68
556.26	2503.77
556.61	2510.39
556.97	2516.70
557.32	2522.69
557.68	2528.64
558.03	2534.91
558.39	2540.31
558.74	2546.67
559.10	2552.21
559.45	2557.59
559.81	2563.66
560.16	2569.22
560.52	2574.03
560.87	2579.03
561.23	2583.25
561.58	2587.73
561.94	2591.64
562.29	2595.14
562.64	2599.62
563.00	2603.69
563.35	2609.08
563.71	2613.69
564.06	2618.35
564.42	2622.65
564.77	2626.63
565.12	2630.25
565.48	2633.41
565.83	2636.78
566.19	2639.54
566.54	2641.47
566.89	2643.96
567.25	2645.69
567.60	2648.14
567.96	2651.14
568.31	2653.06
568.66	2655.37
569.02	2657.02
569.37	2658.44
569.72	2660.64
570.08	2661.70
570.43	2662.48
570.78	2662.45
571.14	2661.46
571.49	2660.67
571.84	2660.98
572.20	2660.54
572.55	2660.25
572.90	2658.88
573.26	2657.98
573.61	2656.57
573.96	2655.30
574.31	2652.45
574.67	2649.66
575.02	2646.06
575.37	2642.50
575.72	2638.91
576.08	2635.59
576.43	2632.21
576.78	2628.58
577.13	2625.16
577.49	2622.05
577.84	2618.53
578.19	2614.82
578.54	2611.11
578.90	2606.96
579.25	2601.07
579.60	2595.77
579.95	2590.38
580.30	2585.24
580.66	2579.67
581.01	2574.28
581.36	2569.00
581.71	2564.66
582.06	2559.95
582.42	2555.28
582.77	2549.88
583.12	2544.91
583.47	2539.95
583.82	2534.70
584.17	2529.02
584.53	2522.95
584.88	2516.66
585.23	2510.52
585.58	2504.37
585.93	2498.31
586.28	2492.83
586.63	2487.10
586.98	2481.31
587.34	2476.01
587.69	2470.54
588.04	2464.77
588.39	2458.48
588.74	2451.17
589.09	2443.98
589.44	2436.21
589.79	2429.08
590.14	2422.29
590.49	2414.73
590.84	2407.19
591.19	2400.12
591.54	2392.60
591.89	2384.36
592.25	2376.72
592.60	2368.25
592.95	2359.52
593.30	2350.92
593.65	2342.11
594.00	2333.90
594.35	2325.46
594.70	2316.02
595.05	2307.76
595.40	2299.04
595.75	2290.26
596.10	2282.95
596.45	2275.19
596.80	2267.98
597.15	2260.47
597.50	2252.60
597.85	2245.00
598.19	2237.17
598.54	2228.98
598.89	2221.13
599.24	2214.13
599.59	2206.15
599.94	2198.84
600.29	2191.36
600.64	2183.61
600.99	2174.95
601.34	2166.91
601.69	2158.58
602.04	2150.62
602.39	2141.78
602.74	2133.80
603.08	2125.67
603.43	2117.57
603.78	2108.84
604.13	2100.19
604.48	2091.56
604.83	2083.09
605.18	2074.94
605.53	2065.68
605.87	2056.10
606.22	2047.39
606.57	2037.70
606.92	2028.73
607.27	2020.29
607.62	2011.92
607.96	2003.39
608.31	1995.55
608.66	1986.56
609.01	1977.72
609.36	1968.65
609.70	1959.10
610.05	1949.50
610.40	1940.34
610.75	1930.42
611.10	1921.31
611.44	1911.23
611.79	1901.50
612.14	1891.19
612.49	1880.11
612.83	1869.92
613.18	1860.11
613.53	1850.44
613.88	1840.25
614.22	1830.48
614.57	1819.90
614.92	1810.32
615.27	1801.22
615.61	1791.20
615.96	1781.45
616.31	1772.13
616.65	1763.21
617.00	1754.14
617.35	1744.80
617.70	1734.85
618.04	1724.90
618.39	1714.77
618.74	1705.65
619.08	1695.63
619.43	1686.44
619.78	1678.10
620.12	1669.47
620.47	1660.40
620.82	1650.51
621.16	1641.42
621.51	1632.12
621.85	1622.94
622.20	1612.65
622.55	1602.50
622.89	1593.00
623.24	1583.59
623.59	1574.64
623.93	1565.55
624.28	1556.79
624.62	1547.74
624.97	1539.08
625.32	1530.52
625.66	1522.15
626.01	1513.56
626.35	1504.69
626.70	1495.35
627.04	1485.99
627.39	1476.48
627.73	1467.52
628.08	1459.11
628.43	1450.61
628.77	1441.90
629.12	1432.84
629.46	1424.25
629.81	1415.14
630.15	1406.39
630.50	1397.64
630.84	1387.75
631.19	1378.08
631.53	1369.00
631.88	1359.78
632.22	1350.59
632.57	1341.97
632.91	1332.88
633.26	1323.93
633.60	1315.02
633.95	1306.39
634.29	1297.91
634.64	1289.97
634.98	1281.19
635.32	1272.71
635.67	1264.68
636.01	1256.50
636.36	1248.32
636.70	1240.49
637.05	1232.67
637.39	1224.89
637.73	1217.01
638.08	1209.94
638.42	1202.78
638.77	1195.07
639.11	1187.26
639.45	1179.67
639.80	1171.66
640.14	1164.04
640.49	1156.19
640.83	1148.68
641.17	1141.39
641.52	1133.83
641.86	1126.06
642.20	1119.05
642.55	1111.49
642.89	1103.67
643.23	1095.90
643.58	1089.07
643.92	1081.70
644.26	1074.58
644.61	1067.36
644.95	1060.30
645.29	1052.63
645.64	1044.60
645.98	1037.07
646.32	1030.04
646.66	1022.87
647.01	1015.98
647.35	1009.19
647.69	1002.24
648.04	995.65
648.38	988.74
648.72	981.66
649.06	974.55
649.41	967.57
649.75	960.54
650.09	953.55
650.43	946.74
650.78	939.50
651.12	932.47
651.46	925.60
651.80	918.86
652.14	912.40
652.49	905.99
652.83	899.99
653.17	893.28
653.51	886.64
653.85	880.18
654.20	873.57
654.54	866.48
654.88	859.71
655.22	852.70
655.56	845.96
655.90	839.45
656.25	833.27
656.59	826.89
656.93	820.87
657.27	814.85
657.61	808.48
657.95	802.46
658.29	796.37
658.64	790.19
658.98	783.86
659.32	777.44
659.66	771.28
660.00	764.99
660.34	759.14
660.68	753.25
661.02	747.27
661.36	741.74
661.70	736.39
662.05	731.22
662.39	726.07
662.73	720.81
663.07	715.65
663.41	710.38
663.75	705.09
664.09	699.68
664.43	694.44
664.77	689.53
665.11	684.46
665.45	679.57
665.79	674.76
666.13	669.95
666.47	665.16
666.81	660.25
667.15	655.35
667.49	650.77
667.83	646.26
668.17	641.67
668.51	636.82
668.85	632.07
669.19	627.48
669.53	623.02
669.87	618.44
670.21	614.04
670.55	609.71
670.89	605.68
671.23	601.63
671.57	597.46
671.91	593.33
672.25	589.21
672.58	585.08
672.92	580.98
673.26	577.20
673.60	573.42
673.94	569.75
674.28	566.27
674.62	562.72
674.96	559.11
675.30	555.67
675.64	552.22
675.97	548.93
676.31	545.62
676.65	542.15
676.99	538.96
677.33	535.62
677.67	532.28
678.01	528.70
678.34	525.21
678.68	521.81
679.02	518.52
679.36	515.19
679.70	511.98
680.04	508.79
680.37	505.46
680.71	502.18
681.05	499.09
681.39	495.95
681.73	492.87
682.06	489.91
682.40	486.98
682.74	483.96
683.08	480.93
683.42	477.86
683.75	474.88
684.09	471.88
684.43	468.95
684.77	466.08
685.10	463.26
685.44	460.54
685.78	457.87
686.12	455.15
686.45	452.47
686.79	449.76
687.13	447.11
687.46	444.51
687.80	441.97
688.14	439.31
688.48	436.86
688.81	434.22
689.15	431.63
689.49	428.99
689.82	426.58
690.16	424.16
690.50	421.81
690.83	419.56
691.17	417.17
691.51	414.90
691.84	412.71
692.18	410.44
692.52	408.10
692.85	405.75
693.19	403.55
693.52	401.35
693.86	399.14
694.20	397.06
694.53	394.95
694.87	392.74
695.21	390.65
695.54	388.43
695.88	386.40
696.21	384.40
696.55	382.47
696.88	380.43
697.22	378.40
697.56	376.51
697.89	374.50
698.23	372.61
698.56	370.70
698.90	368.84
699.23	366.93
699.57	365.10
699.90	363.28
700.24	361.42
700.58	359.67
700.91	357.96
701.25	356.23
701.58	354.61
701.92	352.99
702.25	351.36
702.59	349.79
702.92	348.18
703.26	346.62
703.59	345.11
703.93	343.72
704.26	342.35
704.60	340.79
704.93	339.31
705.26	337.89
705.60	336.45
705.93	335.07
706.27	333.84
706.60	332.56
706.94	331.27
707.27	329.92
707.61	328.63
707.94	327.37
708.27	326.07
708.61	324.75
708.94	323.56
709.28	322.37
709.61	321.22
709.94	320.06
710.28	318.80
710.61	317.59
710.95	316.26
711.28	315.09
711.61	314.00
711.95	312.90
712.28	311.73
712.61	310.61
712.95	309.47
713.28	308.37
713.61	307.30
713.95	306.30
714.28	305.29
714.61	304.28
714.95	303.29
715.28	302.31
715.61	301.26
715.95	300.20
716.28	299.20
716.61	298.19
716.95	297.21
717.28	296.35
717.61	295.41
717.94	294.55
718.28	293.63
718.61	292.73
718.94	291.87
719.27	291.14
719.61	290.37
719.94	289.62
720.27	288.80
720.60	288.05
720.94	287.28
721.27	286.59
721.60	285.95
721.93	285.23
722.27	284.59
722.60	283.98
722.93	283.36
723.26	282.70
723.59	282.05
723.93	281.43
724.26	280.77
724.59	280.18
724.92	279.54
725.25	278.96
725.59	278.35
725.92	277.78
726.25	277.13
726.58	276.57
726.91	275.97
727.24	275.42
727.57	274.84
727.91	274.22
728.24	273.66
728.57	273.07
728.90	272.51
729.23	271.91
729.56	271.39
729.89	270.79
730.22	270.24
730.55	269.68
730.89	269.13
731.22	268.62
731.55	268.07
731.88	267.56
732.21	267.04
732.54	266.53
732.87	266.02
733.20	265.57
733.53	265.09
733.86	264.63
734.19	264.14
734.52	263.69
734.85	263.37
735.18	262.83
735.51	262.38
735.84	261.97
736.17	261.56
736.50	261.06
736.83	260.80
737.16	260.40
737.49	260.01
737.82	259.59
738.15	259.21
738.48	258.81
738.81	258.43
739.14	258.01
739.47	257.65
739.80	257.28
740.13	256.89
740.46	256.49
740.79	256.09
741.12	255.73
741.45	255.35
741.78	254.89
742.11	254.56
742.44	254.12
742.77	253.78
743.10	253.39
743.43	253.03
743.75	252.54
744.08	252.34
744.41	251.99
744.74	251.68
745.07	251.30
745.40	251.03
745.73	250.74
746.06	250.42
746.39	250.08
746.71	249.75
747.04	249.40
747.37	249.10
747.70	248.81
748.03	248.48
748.36	248.22
748.68	247.93
749.01	247.65
749.34	247.40
749.67	247.09
750.00	246.85
750.33	246.66
750.65	246.45
750.98	246.02
751.31	245.78
751.64	245.50
751.97	245.32
752.29	245.03
752.62	244.74
752.95	244.52
753.28	244.26
753.60	244.01
753.93	243.81
754.26	243.59
754.59	243.33
754.91	243.10
755.24	242.85
755.57	242.64
755.90	242.42
756.22	242.22
756.55	241.99
756.88	241.74
757.20	241.44
757.53	241.17
757.86	241.01
758.19	240.83
758.51	240.66
758.84	240.42
759.17	240.25
759.49	240.06
759.82	239.89
760.15	239.75
760.47	239.62
760.80	239.41
761.13	239.26
761.45	239.06
761.78	238.89
762.11	238.75
762.43	238.56
762.76	238.38
763.08	238.24
763.41	238.12
763.74	237.98
764.06	237.84
764.39	237.72
764.71	237.57
765.04	237.40
765.37	237.25
765.69	237.10
766.02	236.94
766.34	236.79
766.67	236.62
767.00	236.47
767.32	236.35
767.65	236.28
767.97	236.14
768.30	236.06
768.62	235.94
768.95	235.80
769.27	235.69
769.60	235.56
769.92	235.39
770.25	235.25
770.57	235.12
770.90	235.02
771.22	234.86
771.55	234.72
771.87	234.58
772.20	234.46
772.52	234.41
772.85	234.41
773.17	234.29
773.50	234.18
773.82	234.09
774.15	233.97
774.47	233.82
774.80	233.71
775.12	233.58
775.45	233.48
775.77	233.40
776.09	233.29
776.42	233.22
776.74	233.19
777.07	233.08
777.39	232.99
777.72	232.91
778.04	232.86
778.36	232.80
778.69	232.73
779.01	232.69
779.33	232.55
779.66	232.36
779.98	232.29
780.31	232.23
780.63	232.19
780.95	232.09
781.28	232.00
781.60	231.91
781.92	231.85
782.25	231.77
782.57	231.67
782.89	231.60
783.22	231.53
783.54	231.42
783.86	231.37
784.19	231.32
784.51	231.24
784.83	231.16
785.16	231.09
785.48	231.06
785.80	230.98
786.12	230.91
786.45	230.87
786.77	230.80
787.09	230.74
787.42	230.65
787.74	230.63
788.06	230.59
788.38	230.55
788.71	230.46
789.03	230.38
789.35	230.35
789.67	230.31
789.99	230.27
790.32	230.17
790.64	230.15
790.96	230.14
791.28	230.08
791.61	230.01
791.93	229.95
792.25	229.89
792.57	229.92
792.89	229.83
793.21	229.79
793.54	229.73
793.86	229.67
794.18	229.63
794.50	229.56
794.82	229.51
795.14	229.47
795.47	229.46
795.79	229.41
796.11	229.32
796.43	229.29
796.75	229.24
797.07	229.25
797.39	229.22
797.71	229.12
798.04	229.10
798.36	229.06
798.68	229.03
799.00	228.98
799.32	228.90
799.64	228.86
799.96	228.79
800.28	228.80
800.60	228.79
800.92	228.73
801.24	228.67
801.56	228.66
801.89	228.61
802.21	228.60
802.53	228.57
802.85	228.57
803.17	228.56
803.49	228.48
803.81	228.45
804.13	228.38
804.45	228.32
804.77	228.30
805.09	228.29
805.41	228.25
805.73	228.21
806.05	228.14
806.37	228.13
806.69	228.13
807.01	228.10
807.33	228.06
807.65	228.00
807.97	228.03
808.28	227.99
808.60	227.97
808.92	227.92
809.24	227.98
809.56	227.94
809.88	227.89
810.20	227.90
810.52	227.89
810.84	227.88
811.16	227.87
811.48	227.80
811.80	227.80
812.12	227.79
812.43	227.80
812.75	227.77
813.07	227.75
813.39	227.74
813.71	227.69
814.03	227.63
814.35	227.63
814.67	227.57
814.98	227.56
815.30	227.54
815.62	227.55
815.94	227.46
816.26	227.52
816.58	227.50
816.89	227.50
817.21	227.46
817.53	227.42
817.85	227.39
818.17	227.40
818.48	227.38
818.80	227.36
819.12	227.30
819.44	227.29
819.76	227.26
820.07	227.23
820.39	227.21
820.71	227.20
821.03	227.17
821.34	227.17
821.66	227.11
821.98	227.14
822.30	227.09
822.61	227.11
822.93	227.03
823.25	227.00
823.57	226.97
823.88	226.98
824.20	226.94
824.52	226.96
824.83	226.95
825.15	226.90
825.47	226.88
825.79	226.90
826.10	226.86
826.42	226.85
826.74	226.86
827.05	226.86
827.37	226.83
827.69	226.82
828.00	226.79
828.32	226.82
828.64	226.75
828.95	226.81
829.27	226.77
829.58	226.75
829.90	226.73
830.22	226.73
830.53	226.70
830.85	226.70
831.17	226.65
831.48	226.60
831.80	226.59
832.11	226.57
832.43	226.56
832.75	226.56
833.06	226.57
833.38	226.51
833.69	226.50
834.01	226.53
834.32	226.50
834.64	226.49
834.96	226.44
835.27	226.44
835.59	226.34
835.90	226.30
836.22	226.27
836.53	226.26
836.85	226.24
837.16	226.30
837.48	226.28
837.79	226.32
838.11	226.34
838.42	226.30
838.74	226.27
839.05	226.23
839.37	226.21
839.68	226.17
840.00	226.15
840.31	226.16
840.63	226.13
840.94	226.11
841.26	226.08
841.57	226.07
841.88	226.08
842.20	226.06
842.51	226.06
842.83	226.01
843.14	226.07
843.46	226.07
843.77	226.00
844.08	226.00
844.40	225.94
844.71	225.88
845.03	225.86
845.34	225.85
845.65	225.85
845.97	225.84
846.28	225.84
846.60	225.86
846.91	225.84
847.22	225.85
847.54	225.84
847.85	225.84
848.16	225.85
848.48	225.82
848.79	225.87
849.10	225.85
849.42	225.87
849.73	225.78
850.04	225.76
850.36	225.70
850.67	225.69
850.98	225.67
851.30	225.70
851.61	225.71
851.92	225.71
852.23	225.73
852.55	225.74
852.86	225.71
853.17	225.70
853.49	225.70
853.80	225.68
854.11	225.72
854.42	225.73
854.74	225.71
855.05	225.72
855.36	225.67
855.67	225.68
855.99	225.71
856.30	225.83
856.61	225.83
856.92	225.86
857.23	225.89
857.55	225.90
857.86	225.87
858.17	225.91
858.48	225.91
858.79	225.90
859.11	225.92
859.42	225.91
859.73	225.88
860.04	225.87
860.35	225.83
860.66	225.79
860.98	225.79
861.29	225.79
861.60	225.80
861.91	225.81
862.22	225.79
862.53	225.76
862.84	225.64
863.16	225.62
863.47	225.63
863.78	225.60
864.09	225.62
864.40	225.65
864.71	225.64
865.02	225.67
865.33	225.63
865.64	225.63
865.95	225.66
866.27	225.77
866.58	225.79
866.89	225.83
867.20	225.85
867.51	225.82
867.82	225.81
868.13	225.85
868.44	225.87
868.75	225.88
869.06	225.91
869.37	225.92
869.68	225.93
869.99	225.92
870.30	225.95
870.61	225.97
870.92	225.97
871.23	225.95
871.54	225.96
871.85	226.00
872.16	226.02
872.47	225.98
872.78	225.86
873.09	225.86
873.40	225.86
873.71	225.86
874.02	225.85
874.33	225.86
874.64	225.81
874.95	225.80
875.26	225.77
875.56	225.72
875.87	225.74
876.18	225.73
876.49	225.83
876.80	225.79
877.11	225.75
877.42	225.77
877.73	225.74
878.04	225.66
878.35	225.66
878.66	225.65
878.96	225.68
879.27	225.66
879.58	225.67
879.89	225.64
880.20	225.64
880.51	225.67
880.82	225.66
881.12	225.62
881.43	225.58
881.74	225.56
882.05	225.58
882.36	225.56
882.67	225.55
882.97	225.43
883.28	225.43
883.59	225.39
883.90	225.37
884.21	225.40
884.51	225.42
884.82	225.42
885.13	225.43
885.44	225.39
885.74	225.40
886.05	225.36
886.36	225.37
886.67	225.35
886.98	225.35
887.28	225.34
887.59	225.38
887.90	225.37
888.20	225.40
888.51	225.39
888.82	225.37
889.13	225.39
889.43	225.45
889.74	225.46
890.05	225.46
890.35	225.44
890.66	225.42
890.97	225.43
891.28	225.39
891.58	225.36
891.89	225.40
892.20	225.41
892.50	225.41
892.81	225.40
893.12	225.36
893.42	225.34
893.73	225.34
894.04	225.31
894.34	225.33
894.65	225.30
894.95	225.31
895.26	225.33
895.57	225.33
895.87	225.24
896.18	225.24
896.48	225.26
896.79	225.23
897.10	225.26
897.40	225.26
897.71	225.27
898.01	225.28
898.32	225.25
898.63	225.25
898.93	225.25
899.24	225.23
899.54	225.25
899.85	225.25
900.15	225.25
900.46	225.26
900.76	225.31
901.07	225.34
901.38	225.28
901.68	225.28
901.99	225.27
902.29	225.28
902.60	225.29
902.90	225.31
903.21	225.33
903.51	225.33
903.82	225.35
904.12	225.36
904.43	225.37
904.73	225.36
905.03	225.37
905.34	225.47
905.64	225.49
905.95	225.52
906.25	225.49
906.56	225.51
906.86	225.51
907.17	225.47
907.47	225.49
907.77	225.51
908.08	225.48
908.38	225.49
908.69	225.53
908.99	225.56
909.30	225.56
909.60	225.56
909.90	225.53
910.21	225.49
910.51	225.46
910.81	225.45
911.12	225.45
911.42	225.46
911.73	225.32
912.03	225.30
912.33	225.30
912.64	225.33
912.94	225.27
913.24	225.27
913.55	225.29
913.85	225.23
914.15	225.26
914.46	225.27
914.76	225.24
915.06	225.19
915.37	225.14
915.67	225.11
915.97	225.09
916.27	225.08
916.58	225.07
916.88	225.07
917.18	225.04
917.49	225.12
917.79	225.13
918.09	225.16
918.39	225.17
918.70	225.15
919.00	225.13
919.30	225.19
919.60	225.15
919.91	225.12
920.21	225.14
920.51	225.12
920.81	225.10
921.12	225.11
921.42	225.08
921.72	225.08
922.02	225.12
922.32	225.14
922.63	225.15
922.93	225.17
923.23	225.18
923.53	225.18
923.83	225.09
924.13	225.08
924.44	225.07
924.74	225.09
925.04	225.09
925.34	225.09
925.64	225.05
925.94	225.04
926.24	225.08
926.55	225.05
926.85	225.03
927.15	225.01
927.45	225.02
927.75	225.05
928.05	225.06
928.35	225.02
928.65	225.04
928.95	225.03
929.26	225.02
929.56	225.02
929.86	225.05
930.16	225.06
930.46	225.03
930.76	225.03
931.06	225.00
931.36	224.97
931.66	224.97
931.96	224.98
932.26	224.99
932.56	224.94
932.86	224.95
933.16	224.98
933.46	225.03
933.76	225.00
934.06	225.02
934.36	225.07
934.66	225.09
934.96	225.10
935.26	225.12
935.56	225.15
935.86	225.15
936.16	225.12
936.46	225.11
936.76	225.12
937.06	225.14
937.36	225.18
937.66	225.19
937.96	225.18
938.26	225.18
938.56	225.22
938.86	225.26
939.16	225.26
939.46	225.27
939.76	225.28
940.06	225.29
940.35	225.29
940.65	225.22
940.95	225.23
941.25	225.21
941.55	225.20
941.85	225.20
942.15	225.23
942.45	225.29
942.75	225.28
943.04	225.30
943.34	225.31
943.64	225.26
943.94	225.27
944.24	225.27
944.54	225.28
944.84	225.27
945.13	225.25
945.43	225.28
945.73	225.30
946.03	225.28
946.33	225.28
946.62	225.26
946.92	225.27
947.22	225.25
947.52	225.23
947.82	225.23
948.11	225.17
948.41	225.17
948.71	225.11
949.01	225.11
949.31	225.09
949.60	225.05
949.90	225.07
950.20	225.06
950.50	225.07
950.79	225.08
951.09	225.08
951.39	225.08
951.69	225.06
951.98	225.04
952.28	225.03
952.58	225.00
952.87	225.01
953.17	225.00
953.47	224.96
953.76	224.95
954.06	224.93
954.36	224.95
954.66	224.91
954.95	224.97
955.25	224.98
955.55	224.98
955.84	224.99
956.14	225.00
956.44	225.02
956.73	224.99
957.03	224.96
957.32	224.93
957.62	224.89
957.92	224.89
958.21	224.88
958.51	225.00
958.81	225.00
959.10	225.01
959.40	225.03
959.69	225.05
959.99	225.08
960.29	225.09
960.58	225.07
960.88	225.15
961.17	225.12
961.47	225.12
961.76	225.11
962.06	225.09
962.36	225.07
962.65	225.06
962.95	225.10
963.24	225.06
963.54	225.09
963.83	225.12
964.13	225.11
964.42	225.06
964.72	224.97
965.01	224.96
965.31	224.94
965.60	224.93
965.90	225.00
966.19	224.95
966.49	224.95
966.78	224.94
967.08	224.89
967.37	224.88
967.67	224.87
967.96	224.89
968.26	224.92
968.55	224.95
968.85	224.95
969.14	224.94
969.43	224.97
969.73	224.93
970.02	224.94
970.32	224.97
970.61	225.00
970.91	224.95
971.20	224.96
971.49	224.93
971.79	224.95
972.08	224.88
972.38	224.91
972.67	224.90
972.96	224.94
973.26	224.97
973.55	225.00
973.85	225.01
974.14	225.00
974.43	224.99
974.73	224.95
975.02	224.98
975.31	225.01
975.61	225.04
975.90	225.07
976.19	225.06
976.49	225.10
976.78	225.14
977.07	225.16
977.37	225.21
977.66	225.24
977.95	225.22
978.24	225.29
978.54	225.32
978.83	225.31
979.12	225.31
979.42	225.27
979.71	225.28
980.00	225.28
980.29	225.29
980.59	225.28
980.88	225.34
981.17	225.29
981.46	225.25
981.76	225.23
982.05	225.29
982.34	225.29
982.63	225.24
982.93	225.21
983.22	225.24
983.51	225.21
983.80	225.27
984.09	225.28
984.39	225.25
984.68	225.22
984.97	225.23
985.26	225.21
985.55	225.24
985.85	225.21
986.14	225.20
986.43	225.19
986.72	225.18
987.01	225.13
987.30	225.17
987.59	225.17
987.89	225.16
988.18	225.11
988.47	225.11
988.76	225.10
989.05	225.10
989.34	225.10
989.63	225.11
989.92	225.06
990.22	225.04
990.51	225.01
990.80	224.97
991.09	224.97
991.38	225.00
991.67	224.96
991.96	224.95
992.25	224.99
992.54	224.97
992.83	224.97
993.12	224.97
993.41	224.95
993.70	224.98
993.99	225.00
994.28	225.01
994.58	225.00
994.87	225.00
995.16	224.97
995.45	224.96
995.74	224.94
996.03	224.94
996.32	224.91
996.61	224.97
996.90	224.99
997.19	224.98
997.48	224.93
997.77	224.92
998.06	224.91
998.34	224.86
998.63	224.86
998.92	224.85
999.21	224.86
999.50	224.85
999.79	224.83
1000.08	224.82
1000.37	224.80
1000.66	224.79
1000.95	224.81
1001.24	224.82
1001.53	224.82
1001.82	224.80
1002.11	224.77
1002.40	224.82
1002.68	224.80
1002.97	224.86
1003.26	224.86
1003.55	224.87
1003.84	224.89
1004.13	224.92
1004.42	224.91
1004.71	224.90
1004.99	224.88
1005.28	224.88
1005.57	224.86
1005.86	224.86
1006.15	224.83
1006.44	224.79
1006.72	224.83
1007.01	224.82
1007.30	224.81
1007.59	224.79
1007.88	224.80
1008.17	224.80
1008.45	224.80
1008.74	224.74
1009.03	224.67
1009.32	224.65
1009.60	224.66
1009.89	224.64
1010.18	224.64
1010.47	224.66
1010.76	224.67
1011.04	224.69
1011.33	224.70
1011.62	224.73
1011.91	224.73
1012.19	224.74
1012.48	224.76
1012.77	224.75
1013.05	224.79
1013.34	224.79
1013.63	224.82
1013.92	224.81
1014.20	224.82
1014.49	224.80
1014.78	224.84
1015.06	224.82
1015.35	224.84
1015.64	224.85
1015.92	224.87
1016.21	224.84
1016.50	224.83
1016.78	224.86
1017.07	224.90
1017.36	224.88
1017.64	224.84
1017.93	224.83
1018.22	224.83
1018.50	224.81
1018.79	224.81
1019.08	224.80
1019.36	224.83
1019.65	224.76
1019.93	224.80
1020.22	224.80
1020.51	224.85
1020.79	224.86
1021.08	224.64
1021.36	224.42
1021.65	225.07
1021.94	225.18
1022.22	225.29
1022.51	223.80
1022.79	225.30
1023.08	224.70
1023.36	226.07
1023.65	224.85
>>>>>End Processed Spectral Data<<<<<
