SpectraSuite Data File
++++++++++++++++++++++++++++++++++++
Date: Fri Feb 01 18:09:29 EST 2013
User: group
Dark Spectrum Present: No
Reference Spectrum Present: No
Number of Sampled Component Spectra: 1
Spectrometers: USB2E7196
Integration Time (usec): 35000 (USB2E7196)
Spectra Averaged: 100 (USB2E7196)
Boxcar Smoothing: 10 (USB2E7196)
Correct for Electrical Dark: No (USB2E7196)
Strobe/Lamp Enabled: No (USB2E7196)
Correct for Detector Non-linearity: No (USB2E7196)
Correct for Stray Light: No (USB2E7196)
Number of Pixels in Processed Spectrum: 2048
>>>>>Begin Processed Spectral Data<<<<<
339.09	0.00
339.48	213.09
339.86	214.92
340.24	216.06
340.63	217.44
341.01	220.51
341.39	220.30
341.78	221.96
342.16	222.87
342.54	222.83
342.93	211.66
343.31	222.36
343.69	222.91
344.07	223.36
344.46	223.79
344.84	224.15
345.22	224.40
345.60	224.64
345.99	224.82
346.37	224.96
346.75	225.08
347.13	225.13
347.52	225.23
347.90	225.30
348.28	225.32
348.66	225.37
349.05	225.38
349.43	225.42
349.81	225.44
350.19	225.47
350.57	225.55
350.96	225.61
351.34	225.68
351.72	225.75
352.10	225.82
352.48	225.89
352.87	225.97
353.25	226.02
353.63	226.08
354.01	226.11
354.39	226.18
354.77	226.26
355.15	226.37
355.54	226.43
355.92	226.42
356.30	226.50
356.68	226.64
357.06	226.69
357.44	226.76
357.82	226.82
358.20	226.90
358.58	226.93
358.97	227.00
359.35	227.07
359.73	227.16
360.11	227.24
360.49	227.28
360.87	227.32
361.25	227.39
361.63	227.45
362.01	227.53
362.39	227.53
362.77	227.53
363.15	227.56
363.53	227.57
363.91	227.63
364.29	227.64
364.67	227.57
365.05	227.61
365.43	227.64
365.81	227.67
366.19	227.71
366.57	227.77
366.95	227.77
367.33	227.75
367.71	227.73
368.09	227.76
368.47	227.77
368.85	227.77
369.23	227.73
369.61	227.68
369.99	227.68
370.37	227.70
370.75	227.71
371.13	227.67
371.51	227.63
371.89	227.59
372.27	227.61
372.65	227.54
373.03	227.53
373.41	227.49
373.78	227.44
374.16	227.34
374.54	227.25
374.92	227.22
375.30	227.16
375.68	227.10
376.06	227.05
376.44	226.99
376.82	226.93
377.19	226.90
377.57	226.83
377.95	226.73
378.33	226.66
378.71	226.59
379.09	226.57
379.47	226.54
379.84	226.48
380.22	226.38
380.60	226.34
380.98	226.27
381.36	226.20
381.73	226.13
382.11	226.10
382.49	226.03
382.87	225.96
383.25	225.94
383.62	226.05
384.00	225.98
384.38	225.92
384.76	225.90
385.13	225.89
385.51	225.86
385.89	225.81
386.27	225.76
386.64	225.75
387.02	225.69
387.40	225.64
387.78	225.59
388.15	225.55
388.53	225.50
388.91	225.43
389.29	225.38
389.66	225.40
390.04	225.37
390.42	225.40
390.79	225.40
391.17	225.39
391.55	225.20
391.92	225.16
392.30	225.18
392.68	225.14
393.05	225.14
393.43	225.17
393.81	225.19
394.18	225.14
394.56	225.13
394.94	225.16
395.31	225.14
395.69	225.20
396.06	225.23
396.44	225.28
396.82	225.33
397.19	225.42
397.57	225.42
397.95	225.46
398.32	225.46
398.70	225.50
399.07	225.54
399.45	225.60
399.82	225.67
400.20	225.70
400.58	225.78
400.95	225.80
401.33	225.86
401.70	226.02
402.08	226.15
402.45	226.25
402.83	226.36
403.20	226.48
403.58	226.58
403.95	226.70
404.33	226.82
404.71	226.97
405.08	227.15
405.46	227.30
405.83	227.47
406.21	227.64
406.58	227.83
406.96	228.05
407.33	228.29
407.70	228.55
408.08	228.84
408.45	229.12
408.83	229.40
409.20	229.69
409.58	229.92
409.95	230.26
410.33	230.60
410.70	230.96
411.08	231.33
411.45	231.73
411.82	232.15
412.20	232.62
412.57	233.12
412.95	233.54
413.32	234.05
413.69	234.61
414.07	235.22
414.44	235.86
414.82	236.51
415.19	237.24
415.56	237.99
415.94	238.79
416.31	239.68
416.68	240.54
417.06	241.51
417.43	242.45
417.81	243.50
418.18	244.58
418.55	245.69
418.93	246.92
419.30	248.16
419.67	249.43
420.04	250.75
420.42	252.15
420.79	253.74
421.16	255.41
421.54	257.04
421.91	258.72
422.28	260.49
422.66	262.38
423.03	264.17
423.40	266.02
423.77	267.99
424.15	269.96
424.52	272.06
424.89	274.31
425.26	276.49
425.64	278.54
426.01	280.78
426.38	283.14
426.75	285.47
427.13	287.91
427.50	290.50
427.87	293.15
428.24	295.79
428.61	298.33
428.99	301.07
429.36	304.07
429.73	307.01
430.10	309.83
430.47	312.66
430.85	315.66
431.22	318.85
431.59	322.19
431.96	325.36
432.33	328.80
432.70	332.12
433.08	336.05
433.45	339.73
433.82	343.38
434.19	347.45
434.56	351.42
434.93	355.15
435.30	358.83
435.68	362.86
436.05	366.81
436.42	370.75
436.79	374.22
437.16	377.98
437.53	381.92
437.90	385.85
438.27	389.77
438.64	393.77
439.01	397.43
439.38	400.61
439.75	403.66
440.13	407.27
440.50	410.54
440.87	413.18
441.24	415.95
441.61	419.01
441.98	421.05
442.35	423.62
442.72	426.25
443.09	428.76
443.46	430.17
443.83	431.01
444.20	431.69
444.57	432.93
444.94	433.38
445.31	433.87
445.68	434.34
446.05	434.45
446.42	433.91
446.79	433.29
447.16	432.64
447.53	432.18
447.90	430.51
448.27	428.96
448.64	426.70
449.01	425.08
449.37	422.30
449.74	419.67
450.11	416.49
450.48	413.00
450.85	409.48
451.22	406.47
451.59	403.67
451.96	400.97
452.33	397.28
452.70	393.95
453.07	389.98
453.43	385.95
453.80	381.99
454.17	378.21
454.54	374.62
454.91	370.79
455.28	366.98
455.65	363.50
456.02	359.94
456.38	356.95
456.75	353.23
457.12	350.11
457.49	346.96
457.86	343.89
458.23	341.28
458.59	338.41
458.96	335.48
459.33	332.84
459.70	330.20
460.07	328.10
460.43	325.69
460.80	323.36
461.17	321.30
461.54	319.21
461.91	317.20
462.27	315.16
462.64	313.38
463.01	311.50
463.38	309.61
463.74	307.75
464.11	306.08
464.48	304.61
464.85	303.00
465.21	301.75
465.58	300.45
465.95	298.91
466.32	297.58
466.68	296.28
467.05	294.98
467.42	293.72
467.78	292.40
468.15	291.14
468.52	290.19
468.88	288.99
469.25	287.86
469.62	286.98
469.98	286.02
470.35	285.13
470.72	284.26
471.08	283.33
471.45	282.55
471.82	281.74
472.18	280.84
472.55	280.18
472.92	279.45
473.28	278.74
473.65	278.11
474.02	277.47
474.38	276.92
474.75	276.45
475.11	275.94
475.48	275.52
475.85	275.16
476.21	274.84
476.58	274.50
476.94	274.28
477.31	273.96
477.67	273.66
478.04	273.44
478.41	273.29
478.77	273.26
479.14	273.13
479.50	273.09
479.87	273.12
480.23	273.12
480.60	273.08
480.96	273.11
481.33	273.24
481.69	273.36
482.06	273.50
482.42	273.65
482.79	273.84
483.15	274.08
483.52	274.40
483.88	274.67
484.25	275.02
484.61	275.38
484.98	275.82
485.34	276.37
485.71	276.94
486.07	277.52
486.44	278.05
486.80	278.76
487.17	279.45
487.53	280.27
487.90	281.17
488.26	282.20
488.62	283.22
488.99	284.21
489.35	285.30
489.72	286.48
490.08	287.73
490.44	289.02
490.81	290.44
491.17	291.88
491.54	293.46
491.90	295.04
492.26	296.81
492.63	298.66
492.99	300.58
493.36	302.58
493.72	304.75
494.08	306.97
494.45	309.34
494.81	311.90
495.17	314.50
495.54	317.28
495.90	320.15
496.26	323.20
496.63	326.37
496.99	329.74
497.35	333.26
497.72	336.92
498.08	340.73
498.44	344.61
498.80	348.84
499.17	353.17
499.53	357.71
499.89	362.42
500.26	367.23
500.62	372.25
500.98	377.58
501.34	383.04
501.71	388.78
502.07	394.59
502.43	400.60
502.79	406.85
503.16	413.31
503.52	420.07
503.88	426.92
504.24	434.11
504.60	441.49
504.97	449.18
505.33	457.03
505.69	465.25
506.05	473.67
506.41	482.13
506.78	490.95
507.14	500.06
507.50	509.42
507.86	519.13
508.22	529.02
508.59	538.95
508.95	549.34
509.31	559.94
509.67	570.89
510.03	582.06
510.39	593.50
510.75	605.25
511.12	617.05
511.48	629.37
511.84	641.79
512.20	654.29
512.56	667.28
512.92	680.48
513.28	694.02
513.64	707.70
514.00	721.59
514.37	735.75
514.73	750.02
515.09	764.32
515.45	778.92
515.81	793.93
516.17	809.30
516.53	824.83
516.89	840.53
517.25	856.17
517.61	872.09
517.97	887.84
518.33	903.70
518.69	919.98
519.05	936.40
519.41	953.13
519.77	970.39
520.13	987.41
520.49	1004.45
520.85	1021.48
521.21	1038.82
521.57	1056.85
521.93	1074.37
522.29	1092.53
522.65	1110.64
523.01	1128.63
523.37	1146.46
523.73	1164.47
524.09	1182.39
524.45	1200.45
524.81	1219.00
525.17	1237.67
525.53	1256.72
525.89	1275.61
526.25	1294.63
526.61	1313.12
526.97	1331.96
527.33	1350.40
527.68	1369.16
528.04	1387.78
528.40	1406.45
528.76	1425.76
529.12	1444.45
529.48	1463.60
529.84	1481.67
530.20	1500.59
530.56	1519.84
530.91	1539.71
531.27	1558.89
531.63	1577.66
531.99	1596.67
532.35	1615.10
532.71	1633.39
533.07	1652.03
533.42	1670.42
533.78	1688.98
534.14	1707.66
534.50	1725.53
534.86	1743.84
535.21	1761.50
535.57	1779.99
535.93	1797.95
536.29	1815.22
536.65	1832.82
537.00	1849.87
537.36	1867.91
537.72	1884.82
538.08	1901.96
538.44	1918.15
538.79	1934.46
539.15	1950.53
539.51	1966.84
539.87	1983.77
540.22	1999.98
540.58	2016.39
540.94	2032.19
541.29	2047.42
541.65	2062.56
542.01	2078.19
542.37	2093.07
542.72	2107.89
543.08	2122.14
543.44	2137.29
543.79	2151.01
544.15	2164.48
544.51	2178.83
544.87	2192.30
545.22	2205.77
545.58	2218.37
545.94	2230.62
546.29	2243.00
546.65	2255.56
547.01	2267.14
547.36	2278.20
547.72	2289.10
548.07	2299.28
548.43	2309.75
548.79	2319.96
549.14	2330.02
549.50	2339.60
549.86	2349.54
550.21	2359.15
550.57	2368.73
550.92	2377.53
551.28	2386.84
551.64	2396.22
551.99	2404.86
552.35	2413.12
552.70	2421.36
553.06	2429.41
553.41	2437.79
553.77	2445.76
554.13	2453.72
554.48	2462.00
554.84	2469.61
555.19	2476.77
555.55	2483.91
555.90	2490.36
556.26	2497.41
556.61	2503.89
556.97	2510.48
557.32	2516.43
557.68	2522.49
558.03	2528.45
558.39	2533.89
558.74	2540.19
559.10	2545.72
559.45	2551.05
559.81	2557.10
560.16	2562.52
560.52	2567.47
560.87	2572.54
561.23	2576.69
561.58	2581.23
561.94	2585.30
562.29	2588.84
562.64	2593.31
563.00	2597.28
563.35	2602.38
563.71	2607.00
564.06	2611.60
564.42	2615.72
564.77	2619.71
565.12	2623.42
565.48	2626.72
565.83	2629.82
566.19	2632.62
566.54	2634.53
566.89	2637.02
567.25	2638.82
567.60	2641.36
567.96	2644.33
568.31	2646.17
568.66	2648.64
569.02	2650.25
569.37	2651.47
569.72	2653.46
570.08	2654.43
570.43	2655.28
570.78	2655.51
571.14	2654.58
571.49	2653.97
571.84	2654.19
572.20	2653.87
572.55	2653.43
572.90	2652.23
573.26	2651.33
573.61	2649.78
573.96	2648.70
574.31	2645.86
574.67	2642.99
575.02	2639.42
575.37	2635.90
575.72	2632.17
576.08	2628.67
576.43	2625.26
576.78	2621.67
577.13	2618.52
577.49	2615.22
577.84	2611.80
578.19	2607.79
578.54	2604.08
578.90	2599.84
579.25	2593.95
579.60	2588.50
579.95	2583.19
580.30	2577.77
580.66	2572.23
581.01	2566.90
581.36	2561.35
581.71	2556.92
582.06	2552.26
582.42	2547.54
582.77	2542.05
583.12	2537.25
583.47	2532.26
583.82	2527.03
584.17	2521.27
584.53	2515.08
584.88	2508.98
585.23	2502.67
585.58	2496.60
585.93	2490.52
586.28	2484.94
586.63	2479.47
586.98	2473.83
587.34	2468.43
587.69	2462.88
588.04	2457.04
588.39	2450.67
588.74	2443.38
589.09	2436.34
589.44	2428.46
589.79	2421.30
590.14	2414.57
590.49	2406.89
590.84	2399.42
591.19	2392.38
591.54	2385.07
591.89	2376.83
592.25	2369.22
592.60	2360.90
592.95	2352.29
593.30	2343.61
593.65	2334.83
594.00	2326.40
594.35	2317.93
594.70	2308.43
595.05	2300.41
595.40	2291.94
595.75	2283.20
596.10	2276.21
596.45	2268.50
596.80	2261.48
597.15	2253.95
597.50	2246.12
597.85	2238.45
598.19	2230.97
598.54	2222.97
598.89	2215.17
599.24	2208.23
599.59	2200.42
599.94	2193.03
600.29	2185.51
600.64	2177.77
600.99	2169.14
601.34	2161.24
601.69	2152.94
602.04	2145.11
602.39	2136.27
602.74	2128.16
603.08	2120.32
603.43	2112.17
603.78	2103.35
604.13	2094.75
604.48	2086.25
604.83	2077.88
605.18	2069.97
605.53	2060.35
605.87	2050.61
606.22	2041.80
606.57	2032.15
606.92	2023.01
607.27	2014.46
607.62	2006.43
607.96	1998.05
608.31	1990.23
608.66	1981.12
609.01	1972.24
609.36	1963.18
609.70	1953.73
610.05	1944.23
610.40	1934.97
610.75	1925.03
611.10	1915.94
611.44	1905.72
611.79	1895.94
612.14	1885.60
612.49	1874.49
612.83	1864.46
613.18	1854.61
613.53	1845.02
613.88	1834.99
614.22	1825.15
614.57	1814.83
614.92	1805.09
615.27	1795.99
615.61	1785.99
615.96	1776.36
616.31	1767.16
616.65	1758.25
617.00	1749.15
617.35	1739.72
617.70	1729.90
618.04	1719.81
618.39	1709.86
618.74	1700.88
619.08	1691.03
619.43	1681.79
619.78	1673.36
620.12	1664.80
620.47	1655.81
620.82	1645.96
621.16	1636.81
621.51	1627.76
621.85	1618.43
622.20	1608.06
622.55	1597.89
622.89	1588.42
623.24	1579.24
623.59	1570.38
623.93	1561.35
624.28	1552.51
624.62	1543.53
624.97	1534.81
625.32	1526.44
625.66	1517.91
626.01	1509.31
626.35	1500.54
626.70	1491.27
627.04	1482.05
627.39	1472.61
627.73	1463.76
628.08	1455.44
628.43	1446.93
628.77	1438.22
629.12	1429.40
629.46	1420.89
629.81	1411.87
630.15	1403.20
630.50	1394.31
630.84	1384.45
631.19	1374.82
631.53	1365.76
631.88	1356.72
632.22	1347.60
632.57	1338.93
632.91	1329.92
633.26	1320.94
633.60	1311.92
633.95	1303.33
634.29	1294.85
634.64	1286.70
634.98	1277.92
635.32	1269.27
635.67	1261.32
636.01	1253.19
636.36	1245.04
636.70	1237.19
637.05	1229.35
637.39	1221.53
637.73	1213.85
638.08	1206.79
638.42	1199.76
638.77	1192.20
639.11	1184.40
639.45	1176.77
639.80	1168.90
640.14	1161.37
640.49	1153.65
640.83	1146.15
641.17	1138.87
641.52	1131.41
641.86	1123.84
642.20	1116.89
642.55	1109.38
642.89	1101.66
643.23	1093.90
643.58	1087.07
643.92	1079.82
644.26	1072.85
644.61	1065.69
644.95	1058.44
645.29	1050.64
645.64	1042.58
645.98	1035.06
646.32	1027.95
646.66	1020.80
647.01	1013.90
647.35	1007.03
647.69	1000.03
648.04	993.50
648.38	986.66
648.72	979.63
649.06	972.49
649.41	965.43
649.75	958.45
650.09	951.32
650.43	944.48
650.78	937.11
651.12	930.00
651.46	923.13
651.80	916.47
652.14	910.13
652.49	903.91
652.83	897.84
653.17	891.18
653.51	884.56
653.85	878.16
654.20	871.48
654.54	864.45
654.88	857.58
655.22	850.60
655.56	843.69
655.90	837.10
656.25	830.89
656.59	824.59
656.93	818.56
657.27	812.59
657.61	806.21
657.95	800.25
658.29	794.23
658.64	787.98
658.98	781.61
659.32	775.15
659.66	768.91
660.00	762.61
660.34	756.71
660.68	750.87
661.02	744.92
661.36	739.42
661.70	734.10
662.05	729.06
662.39	724.03
662.73	718.92
663.07	713.85
663.41	708.63
663.75	703.40
664.09	698.03
664.43	692.86
664.77	688.05
665.11	683.05
665.45	678.22
665.79	673.45
666.13	668.58
666.47	663.76
666.81	658.89
667.15	654.11
667.49	649.51
667.83	645.01
668.17	640.47
668.51	635.70
668.85	631.00
669.19	626.43
669.53	621.91
669.87	617.36
670.21	612.97
670.55	608.71
670.89	604.60
671.23	600.52
671.57	596.35
671.91	592.17
672.25	588.00
672.58	583.89
672.92	579.83
673.26	576.06
673.60	572.37
673.94	568.76
674.28	565.30
674.62	561.80
674.96	558.18
675.30	554.71
675.64	551.32
675.97	548.02
676.31	544.72
676.65	541.27
676.99	538.09
677.33	534.73
677.67	531.43
678.01	527.95
678.34	524.57
678.68	521.19
679.02	517.88
679.36	514.68
679.70	511.40
680.04	508.28
680.37	505.05
680.71	501.74
681.05	498.62
681.39	495.46
681.73	492.37
682.06	489.40
682.40	486.44
682.74	483.43
683.08	480.46
683.42	477.39
683.75	474.50
684.09	471.48
684.43	468.57
684.77	465.66
685.10	462.84
685.44	460.08
685.78	457.36
686.12	454.70
686.45	451.95
686.79	449.28
687.13	446.59
687.46	443.97
687.80	441.45
688.14	438.79
688.48	436.32
688.81	433.70
689.15	431.14
689.49	428.54
689.82	426.07
690.16	423.60
690.50	421.25
690.83	418.96
691.17	416.57
691.51	414.30
691.84	412.08
692.18	409.80
692.52	407.51
692.85	405.20
693.19	402.99
693.52	400.81
693.86	398.60
694.20	396.42
694.53	394.30
694.87	392.07
695.21	389.96
695.54	387.78
695.88	385.72
696.21	383.70
696.55	381.67
696.88	379.66
697.22	377.67
697.56	375.74
697.89	373.81
698.23	371.92
698.56	370.05
698.90	368.20
699.23	366.29
699.57	364.44
699.90	362.59
700.24	360.72
700.58	358.93
700.91	357.23
701.25	355.60
701.58	353.99
701.92	352.41
702.25	350.81
702.59	349.25
702.92	347.66
703.26	346.12
703.59	344.64
703.93	343.22
704.26	341.76
704.60	340.25
704.93	338.75
705.26	337.28
705.60	335.86
705.93	334.43
706.27	333.21
706.60	331.94
706.94	330.68
707.27	329.39
707.61	328.10
707.94	326.87
708.27	325.54
708.61	324.21
708.94	322.99
709.28	321.81
709.61	320.65
709.94	319.54
710.28	318.34
710.61	317.16
710.95	315.90
711.28	314.80
711.61	313.65
711.95	312.54
712.28	311.45
712.61	310.29
712.95	309.20
713.28	308.07
713.61	307.01
713.95	306.00
714.28	305.01
714.61	303.99
714.95	302.98
715.28	302.00
715.61	301.00
715.95	299.98
716.28	298.98
716.61	297.97
716.95	296.99
717.28	296.11
717.61	295.21
717.94	294.36
718.28	293.45
718.61	292.61
718.94	291.76
719.27	290.93
719.61	290.18
719.94	289.42
720.27	288.60
720.60	287.81
720.94	287.06
721.27	286.36
721.60	285.64
721.93	284.95
722.27	284.31
722.60	283.68
722.93	283.03
723.26	282.39
723.59	281.72
723.93	281.08
724.26	280.41
724.59	279.77
724.92	279.15
725.25	278.50
725.59	277.84
725.92	277.24
726.25	276.60
726.58	276.01
726.91	275.43
727.24	274.89
727.57	274.31
727.91	273.72
728.24	273.15
728.57	272.61
728.90	272.02
729.23	271.41
729.56	270.89
729.89	270.33
730.22	269.75
730.55	269.19
730.89	268.68
731.22	268.16
731.55	267.66
731.88	267.11
732.21	266.62
732.54	266.14
732.87	265.64
733.20	265.18
733.53	264.72
733.86	264.26
734.19	263.80
734.52	263.39
734.85	262.98
735.18	262.47
735.51	262.02
735.84	261.60
736.17	261.19
736.50	260.73
736.83	260.42
737.16	260.02
737.49	259.66
737.82	259.27
738.15	258.89
738.48	258.48
738.81	258.13
739.14	257.74
739.47	257.40
739.80	257.05
740.13	256.73
740.46	256.37
740.79	255.99
741.12	255.66
741.45	255.27
741.78	254.88
742.11	254.58
742.44	254.22
742.77	253.87
743.10	253.51
743.43	253.13
743.75	252.73
744.08	252.55
744.41	252.23
744.74	251.91
745.07	251.59
745.40	251.31
745.73	251.03
746.06	250.73
746.39	250.44
746.71	250.11
747.04	249.80
747.37	249.48
747.70	249.18
748.03	248.86
748.36	248.62
748.68	248.35
749.01	248.07
749.34	247.82
749.67	247.56
750.00	247.32
750.33	247.13
750.65	246.88
750.98	246.47
751.31	246.20
751.64	245.90
751.97	245.67
752.29	245.37
752.62	245.09
752.95	244.83
753.28	244.51
753.60	244.29
753.93	244.06
754.26	243.84
754.59	243.62
754.91	243.37
755.24	243.12
755.57	242.88
755.90	242.63
756.22	242.39
756.55	242.15
756.88	241.90
757.20	241.64
757.53	241.39
757.86	241.24
758.19	241.07
758.51	240.87
758.84	240.63
759.17	240.45
759.49	240.25
759.82	240.10
760.15	239.95
760.47	239.75
760.80	239.57
761.13	239.40
761.45	239.19
761.78	238.99
762.11	238.82
762.43	238.63
762.76	238.47
763.08	238.31
763.41	238.15
763.74	237.99
764.06	237.79
764.39	237.60
764.71	237.41
765.04	237.22
765.37	237.05
765.69	236.93
766.02	236.78
766.34	236.60
766.67	236.45
767.00	236.32
767.32	236.24
767.65	236.14
767.97	235.97
768.30	235.87
768.62	235.76
768.95	235.65
769.27	235.53
769.60	235.42
769.92	235.30
770.25	235.17
770.57	235.09
770.90	234.99
771.22	234.87
771.55	234.77
771.87	234.70
772.20	234.60
772.52	234.54
772.85	234.55
773.17	234.45
773.50	234.31
773.82	234.24
774.15	234.08
774.47	233.93
774.80	233.85
775.12	233.74
775.45	233.63
775.77	233.52
776.09	233.43
776.42	233.35
776.74	233.27
777.07	233.22
777.39	233.09
777.72	232.99
778.04	232.95
778.36	232.85
778.69	232.75
779.01	232.68
779.33	232.57
779.66	232.39
779.98	232.33
780.31	232.28
780.63	232.20
780.95	232.16
781.28	232.07
781.60	231.94
781.92	231.87
782.25	231.83
782.57	231.76
782.89	231.68
783.22	231.55
783.54	231.48
783.86	231.38
784.19	231.31
784.51	231.30
784.83	231.23
785.16	231.15
785.48	231.10
785.80	231.01
786.12	230.92
786.45	230.83
786.77	230.76
787.09	230.70
787.42	230.59
787.74	230.52
788.06	230.48
788.38	230.46
788.71	230.41
789.03	230.33
789.35	230.29
789.67	230.24
789.99	230.19
790.32	230.12
790.64	230.07
790.96	230.07
791.28	229.94
791.61	229.86
791.93	229.81
792.25	229.77
792.57	229.77
792.89	229.70
793.21	229.67
793.54	229.60
793.86	229.52
794.18	229.49
794.50	229.42
794.82	229.37
795.14	229.32
795.47	229.27
795.79	229.22
796.11	229.11
796.43	229.05
796.75	229.03
797.07	228.99
797.39	228.97
797.71	228.86
798.04	228.85
798.36	228.82
798.68	228.77
799.00	228.70
799.32	228.64
799.64	228.61
799.96	228.54
800.28	228.53
800.60	228.48
800.92	228.46
801.24	228.43
801.56	228.39
801.89	228.35
802.21	228.30
802.53	228.26
802.85	228.28
803.17	228.31
803.49	228.24
803.81	228.17
804.13	228.12
804.45	228.09
804.77	228.07
805.09	228.04
805.41	228.02
805.73	227.96
806.05	227.90
806.37	227.90
806.69	227.88
807.01	227.85
807.33	227.83
807.65	227.74
807.97	227.76
808.28	227.71
808.60	227.68
808.92	227.67
809.24	227.70
809.56	227.65
809.88	227.58
810.20	227.58
810.52	227.61
810.84	227.56
811.16	227.53
811.48	227.49
811.80	227.52
812.12	227.47
812.43	227.49
812.75	227.48
813.07	227.43
813.39	227.41
813.71	227.36
814.03	227.36
814.35	227.35
814.67	227.29
814.98	227.24
815.30	227.21
815.62	227.15
815.94	227.08
816.26	227.12
816.58	227.09
816.89	227.05
817.21	227.00
817.53	226.97
817.85	226.98
818.17	226.97
818.48	226.90
818.80	226.91
819.12	226.86
819.44	226.84
819.76	226.81
820.07	226.82
820.39	226.82
820.71	226.81
821.03	226.80
821.34	226.78
821.66	226.80
821.98	226.83
822.30	226.84
822.61	226.90
822.93	226.83
823.25	226.81
823.57	226.80
823.88	226.83
824.20	226.83
824.52	226.85
824.83	226.84
825.15	226.81
825.47	226.79
825.79	226.80
826.10	226.79
826.42	226.81
826.74	226.79
827.05	226.78
827.37	226.78
827.69	226.76
828.00	226.76
828.32	226.76
828.64	226.71
828.95	226.74
829.27	226.66
829.58	226.65
829.90	226.66
830.22	226.68
830.53	226.63
830.85	226.62
831.17	226.57
831.48	226.53
831.80	226.56
832.11	226.55
832.43	226.53
832.75	226.49
833.06	226.51
833.38	226.49
833.69	226.48
834.01	226.46
834.32	226.46
834.64	226.45
834.96	226.43
835.27	226.42
835.59	226.36
835.90	226.36
836.22	226.33
836.53	226.28
836.85	226.26
837.16	226.35
837.48	226.36
837.79	226.39
838.11	226.38
838.42	226.38
838.74	226.36
839.05	226.34
839.37	226.34
839.68	226.28
840.00	226.25
840.31	226.24
840.63	226.25
840.94	226.22
841.26	226.19
841.57	226.17
841.88	226.16
842.20	226.16
842.51	226.17
842.83	226.17
843.14	226.27
843.46	226.25
843.77	226.17
844.08	226.18
844.40	226.13
844.71	226.12
845.03	226.10
845.34	226.08
845.65	226.05
845.97	226.04
846.28	226.06
846.60	226.04
846.91	226.05
847.22	226.03
847.54	226.06
847.85	226.03
848.16	226.06
848.48	226.06
848.79	226.08
849.10	226.05
849.42	226.07
849.73	226.00
850.04	225.99
850.36	225.95
850.67	225.97
850.98	226.01
851.30	226.01
851.61	226.01
851.92	226.03
852.23	226.09
852.55	226.12
852.86	226.07
853.17	226.09
853.49	226.12
853.80	226.14
854.11	226.12
854.42	226.17
854.74	226.14
855.05	226.17
855.36	226.14
855.67	226.16
855.99	226.15
856.30	226.25
856.61	226.24
856.92	226.25
857.23	226.22
857.55	226.20
857.86	226.19
858.17	226.19
858.48	226.18
858.79	226.14
859.11	226.13
859.42	226.10
859.73	226.08
860.04	226.07
860.35	226.06
860.66	226.03
860.98	226.00
861.29	226.01
861.60	225.98
861.91	225.97
862.22	225.95
862.53	225.92
862.84	225.82
863.16	225.87
863.47	225.85
863.78	225.82
864.09	225.80
864.40	225.80
864.71	225.83
865.02	225.88
865.33	225.84
865.64	225.81
865.95	225.84
866.27	225.91
866.58	225.89
866.89	225.89
867.20	225.91
867.51	225.89
867.82	225.87
868.13	225.88
868.44	225.88
868.75	225.89
869.06	225.89
869.37	225.90
869.68	225.79
869.99	225.78
870.30	225.80
870.61	225.82
870.92	225.81
871.23	225.79
871.54	225.76
871.85	225.78
872.16	225.79
872.47	225.79
872.78	225.73
873.09	225.74
873.40	225.67
873.71	225.66
874.02	225.66
874.33	225.64
874.64	225.63
874.95	225.65
875.26	225.64
875.56	225.64
875.87	225.58
876.18	225.61
876.49	225.71
876.80	225.72
877.11	225.65
877.42	225.66
877.73	225.62
878.04	225.62
878.35	225.62
878.66	225.59
878.96	225.58
879.27	225.60
879.58	225.57
879.89	225.58
880.20	225.61
880.51	225.59
880.82	225.60
881.12	225.57
881.43	225.51
881.74	225.48
882.05	225.45
882.36	225.48
882.67	225.49
882.97	225.40
883.28	225.36
883.59	225.40
883.90	225.40
884.21	225.41
884.51	225.39
884.82	225.39
885.13	225.40
885.44	225.42
885.74	225.40
886.05	225.40
886.36	225.40
886.67	225.36
886.98	225.42
887.28	225.39
887.59	225.40
887.90	225.45
888.20	225.44
888.51	225.51
888.82	225.49
889.13	225.49
889.43	225.59
889.74	225.61
890.05	225.59
890.35	225.62
890.66	225.61
890.97	225.60
891.28	225.59
891.58	225.60
891.89	225.60
892.20	225.59
892.50	225.55
892.81	225.57
893.12	225.59
893.42	225.52
893.73	225.54
894.04	225.57
894.34	225.56
894.65	225.57
894.95	225.51
895.26	225.54
895.57	225.59
895.87	225.48
896.18	225.52
896.48	225.51
896.79	225.47
897.10	225.46
897.40	225.48
897.71	225.48
898.01	225.50
898.32	225.49
898.63	225.45
898.93	225.47
899.24	225.46
899.54	225.43
899.85	225.44
900.15	225.40
900.46	225.38
900.76	225.38
901.07	225.37
901.38	225.40
901.68	225.43
901.99	225.36
902.29	225.36
902.60	225.32
902.90	225.32
903.21	225.32
903.51	225.30
903.82	225.33
904.12	225.31
904.43	225.29
904.73	225.30
905.03	225.33
905.34	225.42
905.64	225.41
905.95	225.41
906.25	225.36
906.56	225.40
906.86	225.39
907.17	225.37
907.47	225.37
907.77	225.32
908.08	225.25
908.38	225.24
908.69	225.25
908.99	225.25
909.30	225.27
909.60	225.23
909.90	225.25
910.21	225.21
910.51	225.19
910.81	225.17
911.12	225.17
911.42	225.17
911.73	225.09
912.03	225.11
912.33	225.14
912.64	225.18
912.94	225.17
913.24	225.15
913.55	225.15
913.85	225.15
914.15	225.17
914.46	225.16
914.76	225.15
915.06	225.11
915.37	225.08
915.67	225.04
915.97	225.04
916.27	225.03
916.58	225.03
916.88	225.03
917.18	225.05
917.49	225.12
917.79	225.11
918.09	225.10
918.39	225.08
918.70	225.04
919.00	225.05
919.30	225.06
919.60	225.05
919.91	225.01
920.21	225.01
920.51	225.03
920.81	225.03
921.12	225.09
921.42	225.10
921.72	225.14
922.02	225.17
922.32	225.19
922.63	225.19
922.93	225.26
923.23	225.26
923.53	225.26
923.83	225.18
924.13	225.21
924.44	225.22
924.74	225.28
925.04	225.32
925.34	225.30
925.64	225.29
925.94	225.28
926.24	225.33
926.55	225.33
926.85	225.32
927.15	225.36
927.45	225.31
927.75	225.32
928.05	225.28
928.35	225.29
928.65	225.33
928.95	225.33
929.26	225.28
929.56	225.30
929.86	225.29
930.16	225.29
930.46	225.24
930.76	225.27
931.06	225.22
931.36	225.19
931.66	225.20
931.96	225.22
932.26	225.25
932.56	225.23
932.86	225.27
933.16	225.28
933.46	225.28
933.76	225.29
934.06	225.33
934.36	225.38
934.66	225.38
934.96	225.36
935.26	225.38
935.56	225.40
935.86	225.35
936.16	225.36
936.46	225.35
936.76	225.35
937.06	225.32
937.36	225.33
937.66	225.33
937.96	225.33
938.26	225.32
938.56	225.30
938.86	225.30
939.16	225.28
939.46	225.28
939.76	225.28
940.06	225.26
940.35	225.24
940.65	225.20
940.95	225.18
941.25	225.16
941.55	225.15
941.85	225.13
942.15	225.16
942.45	225.17
942.75	225.14
943.04	225.16
943.34	225.16
943.64	225.11
943.94	225.08
944.24	225.10
944.54	225.08
944.84	225.12
945.13	225.11
945.43	225.12
945.73	225.09
946.03	225.09
946.33	225.11
946.62	225.07
946.92	225.04
947.22	225.03
947.52	225.05
947.82	225.06
948.11	225.05
948.41	225.03
948.71	225.03
949.01	225.06
949.31	225.07
949.60	225.08
949.90	225.12
950.20	225.15
950.50	225.11
950.79	225.09
951.09	225.08
951.39	225.11
951.69	225.09
951.98	225.13
952.28	225.12
952.58	225.11
952.87	225.13
953.17	225.16
953.47	225.17
953.76	225.14
954.06	225.10
954.36	225.09
954.66	225.10
954.95	225.10
955.25	225.10
955.55	225.09
955.84	225.08
956.14	225.09
956.44	225.10
956.73	225.11
957.03	225.14
957.32	225.19
957.62	225.17
957.92	225.18
958.21	225.18
958.51	225.29
958.81	225.30
959.10	225.30
959.40	225.34
959.69	225.37
959.99	225.38
960.29	225.41
960.58	225.41
960.88	225.44
961.17	225.44
961.47	225.47
961.76	225.45
962.06	225.45
962.36	225.43
962.65	225.42
962.95	225.41
963.24	225.40
963.54	225.36
963.83	225.37
964.13	225.36
964.42	225.33
964.72	225.27
965.01	225.25
965.31	225.25
965.60	225.21
965.90	225.24
966.19	225.19
966.49	225.20
966.78	225.22
967.08	225.19
967.37	225.17
967.67	225.14
967.96	225.17
968.26	225.19
968.55	225.22
968.85	225.21
969.14	225.22
969.43	225.21
969.73	225.20
970.02	225.21
970.32	225.18
970.61	225.16
970.91	225.13
971.20	225.10
971.49	225.10
971.79	225.14
972.08	225.08
972.38	225.12
972.67	225.12
972.96	225.12
973.26	225.12
973.55	225.15
973.85	225.10
974.14	225.07
974.43	225.07
974.73	225.05
975.02	225.04
975.31	225.05
975.61	225.03
975.90	225.01
976.19	224.96
976.49	225.00
976.78	225.02
977.07	224.99
977.37	225.00
977.66	225.02
977.95	224.97
978.24	224.97
978.54	224.99
978.83	224.96
979.12	224.94
979.42	224.93
979.71	224.92
980.00	224.98
980.29	225.02
980.59	224.99
980.88	225.01
981.17	225.01
981.46	225.02
981.76	225.04
982.05	225.06
982.34	225.09
982.63	225.05
982.93	225.03
983.22	225.08
983.51	225.09
983.80	225.10
984.09	225.12
984.39	225.11
984.68	225.08
984.97	225.12
985.26	225.14
985.55	225.14
985.85	225.12
986.14	225.12
986.43	225.10
986.72	225.10
987.01	225.07
987.30	225.08
987.59	225.06
987.89	225.09
988.18	225.07
988.47	225.07
988.76	225.10
989.05	225.11
989.34	225.10
989.63	225.10
989.92	225.07
990.22	225.09
990.51	225.08
990.80	225.09
991.09	225.11
991.38	225.11
991.67	225.12
991.96	225.13
992.25	225.12
992.54	225.11
992.83	225.11
993.12	225.07
993.41	225.09
993.70	225.13
993.99	225.12
994.28	225.16
994.58	225.18
994.87	225.12
995.16	225.09
995.45	225.09
995.74	225.09
996.03	225.10
996.32	225.10
996.61	225.13
996.90	225.11
997.19	225.09
997.48	225.09
997.77	225.04
998.06	225.01
998.34	225.01
998.63	225.02
998.92	224.99
999.21	225.00
999.50	224.99
999.79	224.96
1000.08	224.95
1000.37	224.94
1000.66	224.96
1000.95	225.01
1001.24	225.02
1001.53	225.01
1001.82	224.98
1002.11	224.96
1002.40	225.00
1002.68	225.01
1002.97	225.09
1003.26	225.04
1003.55	225.00
1003.84	225.04
1004.13	225.08
1004.42	225.08
1004.71	225.08
1004.99	225.08
1005.28	225.11
1005.57	225.09
1005.86	225.05
1006.15	225.05
1006.44	225.02
1006.72	224.97
1007.01	224.96
1007.30	224.97
1007.59	224.94
1007.88	224.94
1008.17	224.94
1008.45	224.88
1008.74	224.85
1009.03	224.79
1009.32	224.82
1009.60	224.83
1009.89	224.80
1010.18	224.73
1010.47	224.71
1010.76	224.73
1011.04	224.73
1011.33	224.74
1011.62	224.73
1011.91	224.74
1012.19	224.71
1012.48	224.71
1012.77	224.75
1013.05	224.78
1013.34	224.77
1013.63	224.77
1013.92	224.76
1014.20	224.75
1014.49	224.73
1014.78	224.74
1015.06	224.70
1015.35	224.71
1015.64	224.73
1015.92	224.73
1016.21	224.76
1016.50	224.78
1016.78	224.79
1017.07	224.81
1017.36	224.78
1017.64	224.77
1017.93	224.78
1018.22	224.80
1018.50	224.82
1018.79	224.77
1019.08	224.75
1019.36	224.74
1019.65	224.74
1019.93	224.79
1020.22	224.81
1020.51	224.89
1020.79	224.87
1021.08	225.07
1021.36	224.99
1021.65	224.15
1021.94	225.23
1022.22	224.37
1022.51	224.50
1022.79	225.63
1023.08	225.02
1023.36	226.00
1023.65	224.56
>>>>>End Processed Spectral Data<<<<<
