SpectraSuite Data File
++++++++++++++++++++++++++++++++++++
Date: Fri Feb 01 17:12:00 EST 2013
User: group
Dark Spectrum Present: No
Reference Spectrum Present: No
Number of Sampled Component Spectra: 1
Spectrometers: USB2E7196
Integration Time (usec): 35000 (USB2E7196)
Spectra Averaged: 100 (USB2E7196)
Boxcar Smoothing: 10 (USB2E7196)
Correct for Electrical Dark: No (USB2E7196)
Strobe/Lamp Enabled: No (USB2E7196)
Correct for Detector Non-linearity: No (USB2E7196)
Correct for Stray Light: No (USB2E7196)
Number of Pixels in Processed Spectrum: 2048
>>>>>Begin Processed Spectral Data<<<<<
339.09	0.00
339.48	212.83
339.86	214.61
340.24	215.96
340.63	217.31
341.01	220.39
341.39	219.64
341.78	221.22
342.16	222.57
342.54	222.94
342.93	211.51
343.31	222.21
343.69	222.76
344.07	223.22
344.46	223.63
344.84	223.99
345.22	224.23
345.60	224.49
345.99	224.68
346.37	224.80
346.75	224.91
347.13	225.01
347.52	225.05
347.90	225.12
348.28	225.17
348.66	225.22
349.05	225.19
349.43	225.23
349.81	225.25
350.19	225.30
350.57	225.37
350.96	225.45
351.34	225.50
351.72	225.61
352.10	225.71
352.48	225.80
352.87	225.87
353.25	225.93
353.63	226.00
354.01	226.08
354.39	226.16
354.77	226.24
355.15	226.33
355.54	226.37
355.92	226.41
356.30	226.47
356.68	226.63
357.06	226.71
357.44	226.82
357.82	226.91
358.20	227.00
358.58	227.03
358.97	227.10
359.35	227.22
359.73	227.28
360.11	227.33
360.49	227.41
360.87	227.48
361.25	227.50
361.63	227.56
362.01	227.62
362.39	227.67
362.77	227.75
363.15	227.79
363.53	227.83
363.91	227.86
364.29	227.90
364.67	227.81
365.05	227.84
365.43	227.82
365.81	227.87
366.19	227.90
366.57	227.96
366.95	227.93
367.33	227.89
367.71	227.90
368.09	227.91
368.47	227.90
368.85	227.85
369.23	227.91
369.61	227.87
369.99	227.88
370.37	227.88
370.75	227.87
371.13	227.83
371.51	227.80
371.89	227.78
372.27	227.72
372.65	227.68
373.03	227.65
373.41	227.58
373.78	227.49
374.16	227.39
374.54	227.31
374.92	227.27
375.30	227.23
375.68	227.14
376.06	227.08
376.44	226.99
376.82	226.93
377.19	226.83
377.57	226.76
377.95	226.63
378.33	226.50
378.71	226.35
379.09	226.29
379.47	226.23
379.84	226.15
380.22	226.06
380.60	226.00
380.98	225.90
381.36	225.86
381.73	225.78
382.11	225.75
382.49	225.69
382.87	225.60
383.25	225.55
383.62	225.63
384.00	225.56
384.38	225.52
384.76	225.53
385.13	225.53
385.51	225.48
385.89	225.46
386.27	225.44
386.64	225.43
387.02	225.36
387.40	225.35
387.78	225.35
388.15	225.33
388.53	225.28
388.91	225.25
389.29	225.25
389.66	225.25
390.04	225.19
390.42	225.18
390.79	225.18
391.17	225.11
391.55	224.95
391.92	224.92
392.30	224.89
392.68	224.83
393.05	224.80
393.43	224.83
393.81	224.84
394.18	224.84
394.56	224.83
394.94	224.85
395.31	224.84
395.69	224.85
396.06	224.89
396.44	224.94
396.82	225.00
397.19	225.04
397.57	225.06
397.95	225.11
398.32	225.11
398.70	225.15
399.07	225.24
399.45	225.29
399.82	225.37
400.20	225.43
400.58	225.49
400.95	225.53
401.33	225.60
401.70	225.72
402.08	225.78
402.45	225.90
402.83	226.04
403.20	226.13
403.58	226.22
403.95	226.33
404.33	226.43
404.71	226.51
405.08	226.66
405.46	226.78
405.83	226.95
406.21	227.10
406.58	227.28
406.96	227.43
407.33	227.60
407.70	227.78
408.08	228.05
408.45	228.28
408.83	228.54
409.20	228.74
409.58	228.92
409.95	229.19
410.33	229.42
410.70	229.63
411.08	229.93
411.45	230.24
411.82	230.53
412.20	230.87
412.57	231.27
412.95	231.58
413.32	232.01
413.69	232.38
414.07	232.83
414.44	233.31
414.82	233.80
415.19	234.38
415.56	234.95
415.94	235.50
416.31	236.15
416.68	236.74
417.06	237.44
417.43	238.13
417.81	238.90
418.18	239.71
418.55	240.54
418.93	241.44
419.30	242.36
419.67	243.34
420.04	244.30
420.42	245.32
420.79	246.48
421.16	247.63
421.54	248.85
421.91	250.11
422.28	251.40
422.66	252.71
423.03	254.04
423.40	255.40
423.77	256.82
424.15	258.23
424.52	259.76
424.89	261.43
425.26	262.96
425.64	264.40
426.01	265.99
426.38	267.69
426.75	269.38
427.13	271.12
427.50	272.92
427.87	274.81
428.24	276.70
428.61	278.45
428.99	280.42
429.36	282.51
429.73	284.55
430.10	286.53
430.47	288.62
430.85	290.73
431.22	292.96
431.59	295.36
431.96	297.67
432.33	300.16
432.70	302.52
433.08	305.38
433.45	308.01
433.82	310.66
434.19	313.58
434.56	316.42
434.93	319.05
435.30	321.72
435.68	324.64
436.05	327.49
436.42	330.32
436.79	332.87
437.16	335.60
437.53	338.45
437.90	341.30
438.27	344.07
438.64	346.95
439.01	349.56
439.38	351.81
439.75	353.99
440.13	356.50
440.50	358.84
440.87	360.75
441.24	362.75
441.61	364.91
441.98	366.39
442.35	368.23
442.72	370.15
443.09	371.94
443.46	372.98
443.83	373.56
444.20	374.10
444.57	374.96
444.94	375.30
445.31	375.67
445.68	376.06
446.05	376.14
446.42	375.73
446.79	375.35
447.16	374.90
447.53	374.59
447.90	373.43
448.27	372.28
448.64	370.72
449.01	369.60
449.37	367.67
449.74	365.80
450.11	363.54
450.48	361.07
450.85	358.59
451.22	356.44
451.59	354.47
451.96	352.50
452.33	349.84
452.70	347.43
453.07	344.60
453.43	341.69
453.80	338.90
454.17	336.24
454.54	333.68
454.91	330.95
455.28	328.28
455.65	325.81
456.02	323.34
456.38	321.18
456.75	318.50
457.12	316.20
457.49	313.96
457.86	311.75
458.23	309.91
458.59	307.82
458.96	305.74
459.33	303.86
459.70	301.99
460.07	300.50
460.43	298.80
460.80	297.18
461.17	295.70
461.54	294.22
461.91	292.79
462.27	291.32
462.64	290.10
463.01	288.73
463.38	287.43
463.74	286.05
464.11	284.85
464.48	283.79
464.85	282.69
465.21	281.81
465.58	280.92
465.95	279.77
466.32	278.87
466.68	277.97
467.05	277.05
467.42	276.16
467.78	275.24
468.15	274.34
468.52	273.66
468.88	272.84
469.25	272.05
469.62	271.43
469.98	270.78
470.35	270.10
470.72	269.51
471.08	268.83
471.45	268.30
471.82	267.76
472.18	267.17
472.55	266.71
472.92	266.16
473.28	265.68
473.65	265.23
474.02	264.77
474.38	264.37
474.75	264.06
475.11	263.72
475.48	263.45
475.85	263.24
476.21	263.00
476.58	262.79
476.94	262.66
477.31	262.48
477.67	262.33
478.04	262.23
478.41	262.14
478.77	262.22
479.14	262.14
479.50	262.16
479.87	262.23
480.23	262.33
480.60	262.41
480.96	262.48
481.33	262.67
481.69	262.85
482.06	263.05
482.42	263.21
482.79	263.47
483.15	263.77
483.52	264.10
483.88	264.44
484.25	264.86
484.61	265.27
484.98	265.70
485.34	266.25
485.71	266.79
486.07	267.39
486.44	267.91
486.80	268.62
487.17	269.35
487.53	270.17
487.90	271.01
488.26	271.96
488.62	272.96
488.99	273.99
489.35	275.03
489.72	276.17
490.08	277.39
490.44	278.63
490.81	279.94
491.17	281.33
491.54	282.83
491.90	284.32
492.26	285.98
492.63	287.73
492.99	289.52
493.36	291.41
493.72	293.46
494.08	295.62
494.45	297.89
494.81	300.25
495.17	302.65
495.54	305.26
495.90	307.93
496.26	310.68
496.63	313.62
496.99	316.74
497.35	320.03
497.72	323.42
498.08	326.95
498.44	330.64
498.80	334.56
499.17	338.56
499.53	342.74
499.89	347.08
500.26	351.53
500.62	356.19
500.98	361.16
501.34	366.20
501.71	371.47
502.07	376.89
502.43	382.48
502.79	388.34
503.16	394.40
503.52	400.62
503.88	407.04
504.24	413.64
504.60	420.44
504.97	427.46
505.33	434.79
505.69	442.39
506.05	450.15
506.41	457.96
506.78	466.03
507.14	474.37
507.50	482.98
507.86	491.98
508.22	501.07
508.59	510.15
508.95	519.61
509.31	529.32
509.67	539.27
510.03	549.47
510.39	559.86
510.75	570.55
511.12	581.37
511.48	592.50
511.84	603.80
512.20	615.20
512.56	626.99
512.92	638.94
513.28	651.17
513.64	663.42
514.00	675.92
514.37	688.69
514.73	701.54
515.09	714.41
515.45	727.50
515.81	740.93
516.17	754.72
516.53	768.70
516.89	782.74
517.25	796.65
517.61	810.80
517.97	825.01
518.33	839.10
518.69	853.55
519.05	868.22
519.41	883.10
519.77	898.28
520.13	913.48
520.49	928.69
520.85	943.78
521.21	959.17
521.57	975.16
521.93	990.66
522.29	1006.67
522.65	1022.65
523.01	1038.44
523.37	1054.21
523.73	1070.11
524.09	1085.93
524.45	1101.82
524.81	1118.17
525.17	1134.61
525.53	1151.17
525.89	1167.72
526.25	1184.35
526.61	1200.47
526.97	1216.96
527.33	1233.27
527.68	1249.53
528.04	1265.63
528.40	1281.81
528.76	1298.59
529.12	1314.83
529.48	1331.41
529.84	1347.11
530.20	1363.35
530.56	1380.00
530.91	1396.88
531.27	1413.31
531.63	1429.43
531.99	1445.69
532.35	1461.41
532.71	1477.00
533.07	1492.96
533.42	1508.64
533.78	1524.41
534.14	1540.28
534.50	1555.21
534.86	1570.73
535.21	1585.69
535.57	1601.27
535.93	1616.52
536.29	1631.02
536.65	1645.58
537.00	1660.00
537.36	1675.18
537.72	1689.37
538.08	1703.70
538.44	1717.32
538.79	1730.94
539.15	1744.21
539.51	1757.50
539.87	1771.60
540.22	1785.01
540.58	1798.36
540.94	1811.16
541.29	1823.49
541.65	1835.97
542.01	1848.90
542.37	1861.05
542.72	1873.08
543.08	1884.65
543.44	1896.91
543.79	1908.11
544.15	1919.11
544.51	1930.59
544.87	1941.30
545.22	1952.26
545.58	1962.25
545.94	1971.98
546.29	1981.80
546.65	1991.70
547.01	2001.22
547.36	2009.96
547.72	2018.57
548.07	2026.71
548.43	2035.17
548.79	2043.28
549.14	2051.00
549.50	2058.41
549.86	2065.96
550.21	2073.50
550.57	2080.73
550.92	2087.39
551.28	2094.35
551.64	2101.54
551.99	2108.05
552.35	2114.32
552.70	2120.45
553.06	2126.70
553.41	2133.17
553.77	2139.16
554.13	2145.28
554.48	2151.43
554.84	2157.02
555.19	2162.24
555.55	2167.49
555.90	2172.11
556.26	2177.35
556.61	2182.08
556.97	2186.81
557.32	2191.14
557.68	2195.36
558.03	2199.87
558.39	2203.63
558.74	2208.44
559.10	2212.50
559.45	2216.53
559.81	2220.87
560.16	2224.85
560.52	2228.14
560.87	2231.68
561.23	2234.60
561.58	2237.74
561.94	2240.43
562.29	2242.82
562.64	2245.93
563.00	2248.58
563.35	2252.25
563.71	2255.56
564.06	2258.80
564.42	2261.76
564.77	2264.50
565.12	2267.11
565.48	2269.31
565.83	2271.52
566.19	2273.15
566.54	2274.13
566.89	2275.37
567.25	2276.33
567.60	2277.71
567.96	2279.73
568.31	2280.79
568.66	2282.24
569.02	2283.04
569.37	2283.71
569.72	2285.01
570.08	2285.34
570.43	2285.66
570.78	2285.38
571.14	2284.04
571.49	2283.14
571.84	2282.98
572.20	2282.29
572.55	2281.45
572.90	2279.87
573.26	2278.82
573.61	2277.05
573.96	2275.75
574.31	2273.08
574.67	2270.43
575.02	2267.16
575.37	2263.99
575.72	2260.60
576.08	2257.39
576.43	2254.26
576.78	2251.01
577.13	2247.86
577.49	2244.82
577.84	2241.60
578.19	2237.84
578.54	2234.56
578.90	2230.79
579.25	2225.47
579.60	2220.77
579.95	2216.01
580.30	2211.44
580.66	2206.42
581.01	2201.89
581.36	2197.11
581.71	2193.28
582.06	2189.10
582.42	2184.87
582.77	2179.75
583.12	2175.37
583.47	2171.00
583.82	2166.32
584.17	2161.08
584.53	2155.80
584.88	2150.48
585.23	2145.05
585.58	2139.87
585.93	2134.55
586.28	2129.63
586.63	2124.78
586.98	2119.81
587.34	2115.30
587.69	2110.53
588.04	2105.66
588.39	2100.24
588.74	2093.97
589.09	2087.80
589.44	2081.23
589.79	2075.25
590.14	2069.77
590.49	2063.28
590.84	2056.94
591.19	2051.06
591.54	2044.74
591.89	2037.77
592.25	2031.38
592.60	2024.33
592.95	2017.21
593.30	2010.04
593.65	2002.62
594.00	1995.78
594.35	1988.75
594.70	1980.74
595.05	1973.87
595.40	1966.43
595.75	1959.01
596.10	1953.04
596.45	1946.58
596.80	1940.48
597.15	1934.15
597.50	1927.53
597.85	1921.20
598.19	1914.72
598.54	1907.93
598.89	1901.50
599.24	1895.63
599.59	1889.23
599.94	1883.02
600.29	1876.67
600.64	1870.04
600.99	1862.93
601.34	1856.22
601.69	1849.17
602.04	1842.65
602.39	1835.27
602.74	1828.68
603.08	1822.18
603.43	1815.46
603.78	1808.34
604.13	1801.28
604.48	1794.03
604.83	1787.05
605.18	1780.40
605.53	1772.52
605.87	1764.48
606.22	1757.11
606.57	1749.16
606.92	1741.51
607.27	1734.44
607.62	1727.49
607.96	1720.51
608.31	1714.08
608.66	1706.56
609.01	1699.25
609.36	1691.57
609.70	1683.61
610.05	1675.60
610.40	1667.94
610.75	1659.59
611.10	1651.96
611.44	1643.42
611.79	1635.40
612.14	1626.80
612.49	1617.44
612.83	1609.03
613.18	1600.88
613.53	1592.92
613.88	1584.41
614.22	1576.22
614.57	1567.55
614.92	1559.68
615.27	1552.20
615.61	1543.70
615.96	1535.71
616.31	1527.98
616.65	1520.55
617.00	1513.03
617.35	1505.34
617.70	1497.06
618.04	1488.67
618.39	1480.23
618.74	1472.84
619.08	1464.52
619.43	1456.94
619.78	1450.08
620.12	1443.02
620.47	1435.52
620.82	1427.27
621.16	1419.80
621.51	1412.02
621.85	1404.32
622.20	1395.75
622.55	1387.21
622.89	1379.39
623.24	1371.51
623.59	1363.91
623.93	1356.43
624.28	1349.19
624.62	1341.68
624.97	1334.46
625.32	1327.52
625.66	1320.40
626.01	1313.05
626.35	1305.81
626.70	1297.92
627.04	1290.14
627.39	1282.20
627.73	1274.66
628.08	1267.75
628.43	1260.49
628.77	1253.34
629.12	1245.89
629.46	1238.71
629.81	1231.17
630.15	1223.87
630.50	1216.53
630.84	1208.45
631.19	1200.41
631.53	1192.71
631.88	1185.00
632.22	1177.29
632.57	1170.03
632.91	1162.56
633.26	1155.22
633.60	1147.67
633.95	1140.43
634.29	1133.22
634.64	1126.45
634.98	1119.17
635.32	1112.08
635.67	1105.40
636.01	1098.68
636.36	1091.88
636.70	1085.17
637.05	1078.65
637.39	1072.08
637.73	1065.58
638.08	1059.68
638.42	1053.64
638.77	1047.19
639.11	1040.76
639.45	1034.38
639.80	1027.69
640.14	1021.32
640.49	1014.82
640.83	1008.48
641.17	1002.34
641.52	996.15
641.86	989.73
642.20	983.89
642.55	977.31
642.89	970.95
643.23	964.20
643.58	958.44
643.92	952.31
644.26	946.29
644.61	940.29
644.95	934.30
645.29	927.75
645.64	921.08
645.98	914.82
646.32	908.77
646.66	902.72
647.01	896.92
647.35	891.21
647.69	885.22
648.04	879.62
648.38	873.86
648.72	867.91
649.06	861.89
649.41	855.88
649.75	850.14
650.09	844.17
650.43	838.44
650.78	832.17
651.12	826.16
651.46	820.42
651.80	814.79
652.14	809.33
652.49	803.96
652.83	798.80
653.17	793.15
653.51	787.57
653.85	782.08
654.20	776.47
654.54	770.45
654.88	764.65
655.22	758.77
655.56	753.01
655.90	747.46
656.25	742.15
656.59	736.74
656.93	731.56
657.27	726.32
657.61	720.92
657.95	715.83
658.29	710.80
658.64	705.47
658.98	699.97
659.32	694.46
659.66	689.21
660.00	683.92
660.34	678.89
660.68	673.90
661.02	668.88
661.36	664.14
661.70	659.59
662.05	655.29
662.39	651.08
662.73	646.66
663.07	642.24
663.41	637.78
663.75	633.36
664.09	628.77
664.43	624.45
664.77	620.31
665.11	616.06
665.45	611.87
665.79	607.80
666.13	603.77
666.47	599.66
666.81	595.56
667.15	591.36
667.49	587.39
667.83	583.47
668.17	579.47
668.51	575.37
668.85	571.33
669.19	567.45
669.53	563.56
669.87	559.66
670.21	555.95
670.55	552.36
670.89	548.90
671.23	545.52
671.57	541.94
671.91	538.44
672.25	534.93
672.58	531.43
672.92	528.01
673.26	524.82
673.60	521.70
673.94	518.56
674.28	515.64
674.62	512.75
674.96	509.74
675.30	506.87
675.64	503.95
675.97	501.12
676.31	498.20
676.65	495.26
676.99	492.51
677.33	489.62
677.67	486.78
678.01	483.77
678.34	480.76
678.68	477.83
679.02	475.00
679.36	472.16
679.70	469.39
680.04	466.60
680.37	463.72
680.71	460.88
681.05	458.22
681.39	455.49
681.73	452.77
682.06	450.20
682.40	447.64
682.74	445.04
683.08	442.49
683.42	439.90
683.75	437.36
684.09	434.79
684.43	432.35
684.77	429.81
685.10	427.42
685.44	425.08
685.78	422.83
686.12	420.53
686.45	418.29
686.79	415.99
687.13	413.79
687.46	411.59
687.80	409.43
688.14	407.15
688.48	405.10
688.81	402.91
689.15	400.77
689.49	398.63
689.82	396.55
690.16	394.47
690.50	392.52
690.83	390.57
691.17	388.58
691.51	386.62
691.84	384.76
692.18	382.88
692.52	380.93
692.85	378.91
693.19	377.06
693.52	375.23
693.86	373.42
694.20	371.59
694.53	369.79
694.87	367.92
695.21	366.14
695.54	364.29
695.88	362.51
696.21	360.74
696.55	359.05
696.88	357.39
697.22	355.68
697.56	353.99
697.89	352.35
698.23	350.78
698.56	349.13
698.90	347.60
699.23	345.94
699.57	344.39
699.90	342.84
700.24	341.24
700.58	339.67
700.91	338.18
701.25	336.75
701.58	335.38
701.92	333.96
702.25	332.59
702.59	331.22
702.92	329.89
703.26	328.59
703.59	327.29
703.93	326.09
704.26	324.87
704.60	323.60
704.93	322.29
705.26	321.01
705.60	319.85
705.93	318.63
706.27	317.55
706.60	316.46
706.94	315.41
707.27	314.27
707.61	313.17
707.94	312.09
708.27	310.99
708.61	309.87
708.94	308.88
709.28	307.90
709.61	306.95
709.94	306.02
710.28	305.01
710.61	304.03
710.95	302.89
711.28	301.94
711.61	300.98
711.95	300.09
712.28	299.13
712.61	298.13
712.95	297.22
713.28	296.35
713.61	295.43
713.95	294.52
714.28	293.66
714.61	292.83
714.95	291.97
715.28	291.12
715.61	290.26
715.95	289.42
716.28	288.52
716.61	287.66
716.95	286.79
717.28	286.00
717.61	285.20
717.94	284.49
718.28	283.70
718.61	283.00
718.94	282.27
719.27	281.61
719.61	281.01
719.94	280.34
720.27	279.56
720.60	278.91
720.94	278.28
721.27	277.70
721.60	277.14
721.93	276.56
722.27	275.99
722.60	275.43
722.93	274.85
723.26	274.34
723.59	273.77
723.93	273.20
724.26	272.67
724.59	272.09
724.92	271.56
725.25	271.08
725.59	270.53
725.92	270.01
726.25	269.51
726.58	268.99
726.91	268.51
727.24	268.09
727.57	267.59
727.91	267.07
728.24	266.58
728.57	266.05
728.90	265.57
729.23	265.07
729.56	264.63
729.89	264.16
730.22	263.67
730.55	263.21
730.89	262.77
731.22	262.31
731.55	261.87
731.88	261.42
732.21	261.02
732.54	260.60
732.87	260.20
733.20	259.74
733.53	259.33
733.86	258.96
734.19	258.51
734.52	258.12
734.85	257.80
735.18	257.40
735.51	257.05
735.84	256.64
736.17	256.32
736.50	255.96
736.83	255.74
737.16	255.38
737.49	255.05
737.82	254.71
738.15	254.39
738.48	254.07
738.81	253.73
739.14	253.36
739.47	253.02
739.80	252.71
740.13	252.43
740.46	252.12
740.79	251.74
741.12	251.45
741.45	251.13
741.78	250.77
742.11	250.55
742.44	250.16
742.77	249.91
743.10	249.59
743.43	249.26
743.75	248.83
744.08	248.71
744.41	248.40
744.74	248.15
745.07	247.86
745.40	247.61
745.73	247.40
746.06	247.15
746.39	246.87
746.71	246.59
747.04	246.32
747.37	246.06
747.70	245.84
748.03	245.58
748.36	245.38
748.68	245.14
749.01	244.85
749.34	244.66
749.67	244.44
750.00	244.23
750.33	244.07
750.65	243.89
750.98	243.56
751.31	243.34
751.64	243.12
751.97	242.93
752.29	242.69
752.62	242.41
752.95	242.15
753.28	241.95
753.60	241.74
753.93	241.56
754.26	241.36
754.59	241.14
754.91	240.92
755.24	240.69
755.57	240.51
755.90	240.32
756.22	240.14
756.55	239.93
756.88	239.73
757.20	239.47
757.53	239.27
757.86	239.07
758.19	238.90
758.51	238.73
758.84	238.54
759.17	238.37
759.49	238.23
759.82	238.15
760.15	238.00
760.47	237.85
760.80	237.66
761.13	237.52
761.45	237.39
761.78	237.27
762.11	237.14
762.43	237.02
762.76	236.87
763.08	236.71
763.41	236.59
763.74	236.44
764.06	236.32
764.39	236.16
764.71	236.03
765.04	235.89
765.37	235.74
765.69	235.57
766.02	235.44
766.34	235.29
766.67	235.12
767.00	235.03
767.32	234.95
767.65	234.91
767.97	234.80
768.30	234.66
768.62	234.55
768.95	234.40
769.27	234.26
769.60	234.18
769.92	234.07
770.25	233.95
770.57	233.85
770.90	233.74
771.22	233.64
771.55	233.55
771.87	233.50
772.20	233.41
772.52	233.44
772.85	233.49
773.17	233.44
773.50	233.34
773.82	233.23
774.15	233.11
774.47	232.95
774.80	232.84
775.12	232.78
775.45	232.70
775.77	232.66
776.09	232.58
776.42	232.46
776.74	232.38
777.07	232.35
777.39	232.28
777.72	232.23
778.04	232.18
778.36	232.09
778.69	232.04
779.01	231.99
779.33	231.84
779.66	231.66
779.98	231.56
780.31	231.50
780.63	231.49
780.95	231.43
781.28	231.39
781.60	231.32
781.92	231.23
782.25	231.15
782.57	231.11
782.89	231.05
783.22	230.99
783.54	230.91
783.86	230.83
784.19	230.76
784.51	230.71
784.83	230.62
785.16	230.58
785.48	230.51
785.80	230.43
786.12	230.38
786.45	230.32
786.77	230.30
787.09	230.22
787.42	230.09
787.74	230.03
788.06	229.97
788.38	229.90
788.71	229.83
789.03	229.78
789.35	229.72
789.67	229.67
789.99	229.65
790.32	229.61
790.64	229.56
790.96	229.59
791.28	229.49
791.61	229.46
791.93	229.41
792.25	229.33
792.57	229.36
792.89	229.29
793.21	229.26
793.54	229.18
793.86	229.13
794.18	229.13
794.50	229.10
794.82	229.07
795.14	229.05
795.47	229.03
795.79	229.04
796.11	228.99
796.43	228.96
796.75	228.94
797.07	228.93
797.39	228.91
797.71	228.83
798.04	228.82
798.36	228.79
798.68	228.75
799.00	228.75
799.32	228.67
799.64	228.67
799.96	228.61
800.28	228.58
800.60	228.56
800.92	228.50
801.24	228.46
801.56	228.45
801.89	228.44
802.21	228.45
802.53	228.39
802.85	228.36
803.17	228.37
803.49	228.30
803.81	228.24
804.13	228.17
804.45	228.10
804.77	228.08
805.09	228.08
805.41	228.06
805.73	227.99
806.05	227.96
806.37	227.91
806.69	227.91
807.01	227.89
807.33	227.86
807.65	227.81
807.97	227.82
808.28	227.78
808.60	227.74
808.92	227.72
809.24	227.76
809.56	227.72
809.88	227.64
810.20	227.61
810.52	227.62
810.84	227.59
811.16	227.55
811.48	227.56
811.80	227.54
812.12	227.50
812.43	227.51
812.75	227.50
813.07	227.46
813.39	227.42
813.71	227.38
814.03	227.35
814.35	227.35
814.67	227.29
814.98	227.23
815.30	227.22
815.62	227.15
815.94	227.03
816.26	227.07
816.58	227.06
816.89	227.06
817.21	227.03
817.53	227.04
817.85	227.03
818.17	227.01
818.48	226.91
818.80	226.93
819.12	226.91
819.44	226.85
819.76	226.85
820.07	226.86
820.39	226.85
820.71	226.86
821.03	226.84
821.34	226.85
821.66	226.85
821.98	226.86
822.30	226.85
822.61	226.89
822.93	226.84
823.25	226.77
823.57	226.75
823.88	226.75
824.20	226.70
824.52	226.73
824.83	226.66
825.15	226.67
825.47	226.64
825.79	226.63
826.10	226.65
826.42	226.63
826.74	226.60
827.05	226.61
827.37	226.58
827.69	226.58
828.00	226.56
828.32	226.54
828.64	226.47
828.95	226.56
829.27	226.53
829.58	226.51
829.90	226.58
830.22	226.57
830.53	226.53
830.85	226.54
831.17	226.49
831.48	226.50
831.80	226.51
832.11	226.49
832.43	226.46
832.75	226.44
833.06	226.50
833.38	226.51
833.69	226.49
834.01	226.48
834.32	226.45
834.64	226.41
834.96	226.44
835.27	226.44
835.59	226.35
835.90	226.31
836.22	226.30
836.53	226.25
836.85	226.23
837.16	226.33
837.48	226.33
837.79	226.36
838.11	226.35
838.42	226.34
838.74	226.35
839.05	226.31
839.37	226.32
839.68	226.26
840.00	226.23
840.31	226.23
840.63	226.22
840.94	226.20
841.26	226.21
841.57	226.19
841.88	226.20
842.20	226.19
842.51	226.17
842.83	226.15
843.14	226.27
843.46	226.24
843.77	226.18
844.08	226.13
844.40	226.11
844.71	226.11
845.03	226.06
845.34	226.06
845.65	226.07
845.97	226.04
846.28	226.01
846.60	226.00
846.91	225.97
847.22	225.95
847.54	225.97
847.85	225.97
848.16	225.95
848.48	225.91
848.79	225.94
849.10	225.99
849.42	225.97
849.73	225.84
850.04	225.87
850.36	225.83
850.67	225.85
850.98	225.82
851.30	225.81
851.61	225.82
851.92	225.83
852.23	225.87
852.55	225.83
852.86	225.83
853.17	225.87
853.49	225.90
853.80	225.91
854.11	225.93
854.42	225.90
854.74	225.86
855.05	225.88
855.36	225.86
855.67	225.86
855.99	225.87
856.30	226.01
856.61	225.99
856.92	225.98
857.23	225.96
857.55	225.92
857.86	225.92
858.17	225.96
858.48	225.92
858.79	225.86
859.11	225.90
859.42	225.87
859.73	225.81
860.04	225.82
860.35	225.82
860.66	225.77
860.98	225.79
861.29	225.80
861.60	225.76
861.91	225.75
862.22	225.72
862.53	225.71
862.84	225.59
863.16	225.59
863.47	225.58
863.78	225.58
864.09	225.60
864.40	225.63
864.71	225.58
865.02	225.60
865.33	225.59
865.64	225.60
865.95	225.62
866.27	225.70
866.58	225.70
866.89	225.67
867.20	225.68
867.51	225.63
867.82	225.65
868.13	225.70
868.44	225.70
868.75	225.69
869.06	225.69
869.37	225.68
869.68	225.67
869.99	225.64
870.30	225.68
870.61	225.69
870.92	225.67
871.23	225.68
871.54	225.70
871.85	225.75
872.16	225.73
872.47	225.72
872.78	225.62
873.09	225.62
873.40	225.59
873.71	225.63
874.02	225.66
874.33	225.67
874.64	225.63
874.95	225.65
875.26	225.65
875.56	225.64
875.87	225.65
876.18	225.65
876.49	225.82
876.80	225.78
877.11	225.75
877.42	225.76
877.73	225.74
878.04	225.70
878.35	225.67
878.66	225.68
878.96	225.65
879.27	225.66
879.58	225.62
879.89	225.64
880.20	225.63
880.51	225.62
880.82	225.58
881.12	225.60
881.43	225.56
881.74	225.52
882.05	225.54
882.36	225.53
882.67	225.54
882.97	225.39
883.28	225.38
883.59	225.36
883.90	225.34
884.21	225.38
884.51	225.36
884.82	225.34
885.13	225.30
885.44	225.30
885.74	225.27
886.05	225.31
886.36	225.31
886.67	225.29
886.98	225.32
887.28	225.33
887.59	225.30
887.90	225.31
888.20	225.33
888.51	225.33
888.82	225.32
889.13	225.31
889.43	225.39
889.74	225.37
890.05	225.38
890.35	225.38
890.66	225.36
890.97	225.34
891.28	225.37
891.58	225.39
891.89	225.41
892.20	225.42
892.50	225.37
892.81	225.33
893.12	225.32
893.42	225.26
893.73	225.25
894.04	225.26
894.34	225.25
894.65	225.20
894.95	225.18
895.26	225.16
895.57	225.21
895.87	225.11
896.18	225.14
896.48	225.15
896.79	225.13
897.10	225.14
897.40	225.15
897.71	225.13
898.01	225.15
898.32	225.16
898.63	225.17
898.93	225.20
899.24	225.22
899.54	225.18
899.85	225.19
900.15	225.18
900.46	225.20
900.76	225.19
901.07	225.22
901.38	225.21
901.68	225.27
901.99	225.18
902.29	225.22
902.60	225.21
902.90	225.20
903.21	225.23
903.51	225.25
903.82	225.30
904.12	225.30
904.43	225.28
904.73	225.29
905.03	225.30
905.34	225.37
905.64	225.38
905.95	225.40
906.25	225.41
906.56	225.44
906.86	225.46
907.17	225.47
907.47	225.49
907.77	225.51
908.08	225.43
908.38	225.48
908.69	225.49
908.99	225.48
909.30	225.53
909.60	225.50
909.90	225.49
910.21	225.46
910.51	225.44
910.81	225.45
911.12	225.45
911.42	225.45
911.73	225.38
912.03	225.40
912.33	225.43
912.64	225.44
912.94	225.39
913.24	225.38
913.55	225.38
913.85	225.34
914.15	225.35
914.46	225.42
914.76	225.40
915.06	225.39
915.37	225.41
915.67	225.39
915.97	225.39
916.27	225.35
916.58	225.34
916.88	225.35
917.18	225.34
917.49	225.39
917.79	225.36
918.09	225.37
918.39	225.38
918.70	225.35
919.00	225.39
919.30	225.46
919.60	225.44
919.91	225.45
920.21	225.43
920.51	225.39
920.81	225.35
921.12	225.36
921.42	225.33
921.72	225.30
922.02	225.32
922.32	225.35
922.63	225.33
922.93	225.38
923.23	225.37
923.53	225.36
923.83	225.28
924.13	225.30
924.44	225.29
924.74	225.30
925.04	225.31
925.34	225.25
925.64	225.21
925.94	225.20
926.24	225.23
926.55	225.28
926.85	225.33
927.15	225.34
927.45	225.30
927.75	225.31
928.05	225.31
928.35	225.27
928.65	225.31
928.95	225.31
929.26	225.26
929.56	225.30
929.86	225.35
930.16	225.34
930.46	225.32
930.76	225.32
931.06	225.27
931.36	225.26
931.66	225.27
931.96	225.30
932.26	225.30
932.56	225.27
932.86	225.24
933.16	225.22
933.46	225.22
933.76	225.23
934.06	225.27
934.36	225.32
934.66	225.30
934.96	225.24
935.26	225.26
935.56	225.28
935.86	225.23
936.16	225.20
936.46	225.21
936.76	225.19
937.06	225.18
937.36	225.21
937.66	225.21
937.96	225.18
938.26	225.15
938.56	225.15
938.86	225.17
939.16	225.22
939.46	225.24
939.76	225.22
940.06	225.20
940.35	225.18
940.65	225.14
940.95	225.18
941.25	225.20
941.55	225.19
941.85	225.22
942.15	225.23
942.45	225.26
942.75	225.26
943.04	225.28
943.34	225.28
943.64	225.27
943.94	225.26
944.24	225.30
944.54	225.30
944.84	225.32
945.13	225.29
945.43	225.26
945.73	225.22
946.03	225.23
946.33	225.23
946.62	225.22
946.92	225.22
947.22	225.22
947.52	225.20
947.82	225.23
948.11	225.20
948.41	225.19
948.71	225.17
949.01	225.19
949.31	225.18
949.60	225.16
949.90	225.19
950.20	225.17
950.50	225.15
950.79	225.15
951.09	225.16
951.39	225.17
951.69	225.17
951.98	225.19
952.28	225.20
952.58	225.20
952.87	225.18
953.17	225.19
953.47	225.20
953.76	225.19
954.06	225.14
954.36	225.12
954.66	225.13
954.95	225.15
955.25	225.13
955.55	225.15
955.84	225.15
956.14	225.15
956.44	225.21
956.73	225.22
957.03	225.21
957.32	225.21
957.62	225.19
957.92	225.21
958.21	225.20
958.51	225.31
958.81	225.32
959.10	225.35
959.40	225.38
959.69	225.37
959.99	225.37
960.29	225.38
960.58	225.38
960.88	225.39
961.17	225.36
961.47	225.38
961.76	225.36
962.06	225.41
962.36	225.38
962.65	225.35
962.95	225.30
963.24	225.30
963.54	225.29
963.83	225.31
964.13	225.27
964.42	225.27
964.72	225.16
965.01	225.16
965.31	225.15
965.60	225.14
965.90	225.20
966.19	225.20
966.49	225.21
966.78	225.23
967.08	225.24
967.37	225.25
967.67	225.25
967.96	225.29
968.26	225.26
968.55	225.26
968.85	225.28
969.14	225.32
969.43	225.33
969.73	225.34
970.02	225.31
970.32	225.30
970.61	225.30
970.91	225.28
971.20	225.28
971.49	225.23
971.79	225.22
972.08	225.11
972.38	225.12
972.67	225.12
972.96	225.14
973.26	225.10
973.55	225.13
973.85	225.11
974.14	225.10
974.43	225.10
974.73	225.07
975.02	225.07
975.31	225.07
975.61	225.05
975.90	225.02
976.19	225.01
976.49	225.06
976.78	225.07
977.07	225.08
977.37	225.10
977.66	225.15
977.95	225.12
978.24	225.18
978.54	225.23
978.83	225.23
979.12	225.24
979.42	225.24
979.71	225.22
980.00	225.19
980.29	225.17
980.59	225.17
980.88	225.21
981.17	225.20
981.46	225.22
981.76	225.21
982.05	225.25
982.34	225.30
982.63	225.29
982.93	225.31
983.22	225.35
983.51	225.35
983.80	225.36
984.09	225.42
984.39	225.40
984.68	225.36
984.97	225.36
985.26	225.32
985.55	225.36
985.85	225.35
986.14	225.38
986.43	225.42
986.72	225.42
987.01	225.39
987.30	225.37
987.59	225.39
987.89	225.41
988.18	225.40
988.47	225.38
988.76	225.35
989.05	225.34
989.34	225.32
989.63	225.33
989.92	225.30
990.22	225.27
990.51	225.27
990.80	225.22
991.09	225.21
991.38	225.24
991.67	225.19
991.96	225.20
992.25	225.21
992.54	225.20
992.83	225.18
993.12	225.17
993.41	225.20
993.70	225.21
993.99	225.20
994.28	225.18
994.58	225.22
994.87	225.21
995.16	225.19
995.45	225.14
995.74	225.10
996.03	225.12
996.32	225.11
996.61	225.13
996.90	225.15
997.19	225.14
997.48	225.12
997.77	225.13
998.06	225.11
998.34	225.09
998.63	225.08
998.92	225.09
999.21	225.12
999.50	225.08
999.79	225.05
1000.08	225.06
1000.37	225.03
1000.66	225.00
1000.95	225.06
1001.24	225.08
1001.53	225.11
1001.82	225.13
1002.11	225.10
1002.40	225.13
1002.68	225.13
1002.97	225.24
1003.26	225.25
1003.55	225.22
1003.84	225.23
1004.13	225.25
1004.42	225.26
1004.71	225.27
1004.99	225.25
1005.28	225.26
1005.57	225.26
1005.86	225.24
1006.15	225.22
1006.44	225.23
1006.72	225.22
1007.01	225.17
1007.30	225.15
1007.59	225.15
1007.88	225.15
1008.17	225.18
1008.45	225.18
1008.74	225.13
1009.03	225.05
1009.32	225.06
1009.60	225.08
1009.89	225.06
1010.18	225.02
1010.47	225.02
1010.76	224.98
1011.04	224.97
1011.33	225.01
1011.62	225.03
1011.91	225.04
1012.19	225.05
1012.48	225.09
1012.77	225.09
1013.05	225.14
1013.34	225.19
1013.63	225.17
1013.92	225.19
1014.20	225.15
1014.49	225.14
1014.78	225.17
1015.06	225.17
1015.35	225.15
1015.64	225.18
1015.92	225.21
1016.21	225.26
1016.50	225.24
1016.78	225.27
1017.07	225.28
1017.36	225.22
1017.64	225.19
1017.93	225.18
1018.22	225.19
1018.50	225.15
1018.79	225.16
1019.08	225.12
1019.36	225.10
1019.65	225.10
1019.93	225.12
1020.22	225.14
1020.51	225.18
1020.79	225.17
1021.08	225.38
1021.36	224.59
1021.65	225.10
1021.94	225.14
1022.22	225.17
1022.51	225.11
1022.79	225.65
1023.08	225.17
1023.36	226.46
1023.65	224.99
>>>>>End Processed Spectral Data<<<<<
