SpectraSuite Data File
++++++++++++++++++++++++++++++++++++
Date: Fri Feb 01 17:24:01 EST 2013
User: group
Dark Spectrum Present: No
Reference Spectrum Present: No
Number of Sampled Component Spectra: 1
Spectrometers: USB2E7196
Integration Time (usec): 35000 (USB2E7196)
Spectra Averaged: 100 (USB2E7196)
Boxcar Smoothing: 10 (USB2E7196)
Correct for Electrical Dark: No (USB2E7196)
Strobe/Lamp Enabled: No (USB2E7196)
Correct for Detector Non-linearity: No (USB2E7196)
Correct for Stray Light: No (USB2E7196)
Number of Pixels in Processed Spectrum: 2048
>>>>>Begin Processed Spectral Data<<<<<
339.09	0.00
339.48	212.90
339.86	214.07
340.24	216.11
340.63	217.31
341.01	219.79
341.39	219.91
341.78	221.14
342.16	221.93
342.54	222.98
342.93	211.30
343.31	221.97
343.69	222.49
344.07	222.95
344.46	223.36
344.84	223.73
345.22	223.95
345.60	224.17
345.99	224.35
346.37	224.47
346.75	224.54
347.13	224.58
347.52	224.60
347.90	224.66
348.28	224.69
348.66	224.70
349.05	224.67
349.43	224.71
349.81	224.77
350.19	224.81
350.57	224.82
350.96	224.88
351.34	224.94
351.72	225.06
352.10	225.13
352.48	225.18
352.87	225.22
353.25	225.29
353.63	225.37
354.01	225.41
354.39	225.51
354.77	225.60
355.15	225.72
355.54	225.82
355.92	225.88
356.30	225.97
356.68	226.10
357.06	226.21
357.44	226.27
357.82	226.32
358.20	226.38
358.58	226.51
358.97	226.60
359.35	226.70
359.73	226.76
360.11	226.87
360.49	226.92
360.87	226.98
361.25	227.05
361.63	227.17
362.01	227.23
362.39	227.31
362.77	227.36
363.15	227.38
363.53	227.38
363.91	227.43
364.29	227.44
364.67	227.35
365.05	227.36
365.43	227.41
365.81	227.49
366.19	227.53
366.57	227.53
366.95	227.51
367.33	227.51
367.71	227.52
368.09	227.51
368.47	227.53
368.85	227.50
369.23	227.54
369.61	227.47
369.99	227.49
370.37	227.45
370.75	227.52
371.13	227.50
371.51	227.48
371.89	227.40
372.27	227.38
372.65	227.38
373.03	227.35
373.41	227.27
373.78	227.20
374.16	227.10
374.54	227.08
374.92	227.04
375.30	226.96
375.68	226.85
376.06	226.80
376.44	226.73
376.82	226.71
377.19	226.63
377.57	226.53
377.95	226.42
378.33	226.35
378.71	226.20
379.09	226.15
379.47	226.12
379.84	226.09
380.22	226.04
380.60	225.97
380.98	225.88
381.36	225.80
381.73	225.70
382.11	225.68
382.49	225.62
382.87	225.54
383.25	225.48
383.62	225.56
384.00	225.49
384.38	225.46
384.76	225.40
385.13	225.38
385.51	225.33
385.89	225.26
386.27	225.22
386.64	225.19
387.02	225.13
387.40	225.08
387.78	225.04
388.15	224.99
388.53	224.92
388.91	224.88
389.29	224.89
389.66	224.87
390.04	224.83
390.42	224.78
390.79	224.75
391.17	224.73
391.55	224.59
391.92	224.58
392.30	224.54
392.68	224.51
393.05	224.50
393.43	224.52
393.81	224.55
394.18	224.53
394.56	224.53
394.94	224.53
395.31	224.52
395.69	224.55
396.06	224.55
396.44	224.61
396.82	224.62
397.19	224.69
397.57	224.75
397.95	224.75
398.32	224.77
398.70	224.83
399.07	224.91
399.45	224.97
399.82	225.01
400.20	225.08
400.58	225.11
400.95	225.10
401.33	225.15
401.70	225.26
402.08	225.33
402.45	225.40
402.83	225.50
403.20	225.63
403.58	225.70
403.95	225.84
404.33	225.96
404.71	226.05
405.08	226.19
405.46	226.30
405.83	226.42
406.21	226.56
406.58	226.66
406.96	226.77
407.33	226.94
407.70	227.12
408.08	227.36
408.45	227.59
408.83	227.85
409.20	228.06
409.58	228.24
409.95	228.48
410.33	228.76
410.70	229.02
411.08	229.27
411.45	229.58
411.82	229.88
412.20	230.21
412.57	230.65
412.95	230.96
413.32	231.37
413.69	231.80
414.07	232.25
414.44	232.77
414.82	233.26
415.19	233.82
415.56	234.39
415.94	234.95
416.31	235.62
416.68	236.22
417.06	236.99
417.43	237.70
417.81	238.51
418.18	239.29
418.55	240.14
418.93	241.08
419.30	242.00
419.67	242.98
420.04	243.98
420.42	245.03
420.79	246.23
421.16	247.44
421.54	248.70
421.91	249.99
422.28	251.27
422.66	252.70
423.03	254.09
423.40	255.45
423.77	256.93
424.15	258.40
424.52	260.03
424.89	261.69
425.26	263.32
425.64	264.83
426.01	266.54
426.38	268.28
426.75	270.01
427.13	271.82
427.50	273.75
427.87	275.72
428.24	277.64
428.61	279.51
428.99	281.54
429.36	283.72
429.73	285.87
430.10	288.01
430.47	290.17
430.85	292.36
431.22	294.70
431.59	297.19
431.96	299.52
432.33	302.09
432.70	304.54
433.08	307.49
433.45	310.23
433.82	312.91
434.19	315.91
434.56	318.85
434.93	321.58
435.30	324.26
435.68	327.24
436.05	330.16
436.42	332.99
436.79	335.60
437.16	338.41
437.53	341.31
437.90	344.17
438.27	346.98
438.64	349.90
439.01	352.60
439.38	354.91
439.75	357.17
440.13	359.70
440.50	362.18
440.87	364.05
441.24	366.09
441.61	368.32
441.98	369.93
442.35	371.78
442.72	373.73
443.09	375.63
443.46	376.70
443.83	377.34
444.20	377.97
444.57	378.82
444.94	379.11
445.31	379.51
445.68	379.95
446.05	380.11
446.42	379.69
446.79	379.31
447.16	378.86
447.53	378.53
447.90	377.36
448.27	376.13
448.64	374.53
449.01	373.33
449.37	371.30
449.74	369.27
450.11	366.95
450.48	364.41
450.85	361.75
451.22	359.54
451.59	357.43
451.96	355.40
452.33	352.71
452.70	350.24
453.07	347.29
453.43	344.28
453.80	341.35
454.17	338.60
454.54	335.92
454.91	333.10
455.28	330.31
455.65	327.74
456.02	325.22
456.38	322.95
456.75	320.18
457.12	317.87
457.49	315.56
457.86	313.30
458.23	311.35
458.59	309.21
458.96	307.02
459.33	305.09
459.70	303.15
460.07	301.60
460.43	299.84
460.80	298.17
461.17	296.68
461.54	295.13
461.91	293.65
462.27	292.20
462.64	290.87
463.01	289.48
463.38	288.14
463.74	286.71
464.11	285.53
464.48	284.48
464.85	283.29
465.21	282.39
465.58	281.45
465.95	280.28
466.32	279.35
466.68	278.42
467.05	277.50
467.42	276.57
467.78	275.63
468.15	274.69
468.52	274.01
468.88	273.11
469.25	272.31
469.62	271.69
469.98	270.97
470.35	270.36
470.72	269.77
471.08	269.06
471.45	268.48
471.82	267.91
472.18	267.32
472.55	266.91
472.92	266.35
473.28	265.86
473.65	265.46
474.02	265.02
474.38	264.63
474.75	264.36
475.11	263.98
475.48	263.70
475.85	263.52
476.21	263.30
476.58	263.11
476.94	263.00
477.31	262.82
477.67	262.67
478.04	262.58
478.41	262.54
478.77	262.58
479.14	262.55
479.50	262.58
479.87	262.62
480.23	262.67
480.60	262.78
480.96	262.90
481.33	263.08
481.69	263.26
482.06	263.48
482.42	263.67
482.79	263.91
483.15	264.24
483.52	264.60
483.88	264.90
484.25	265.29
484.61	265.69
484.98	266.12
485.34	266.67
485.71	267.25
486.07	267.81
486.44	268.39
486.80	269.11
487.17	269.83
487.53	270.65
487.90	271.52
488.26	272.43
488.62	273.40
488.99	274.39
489.35	275.44
489.72	276.56
490.08	277.73
490.44	279.00
490.81	280.31
491.17	281.64
491.54	283.14
491.90	284.70
492.26	286.32
492.63	288.06
492.99	289.81
493.36	291.67
493.72	293.70
494.08	295.79
494.45	298.01
494.81	300.37
495.17	302.81
495.54	305.36
495.90	308.04
496.26	310.84
496.63	313.80
496.99	316.86
497.35	320.07
497.72	323.46
498.08	326.94
498.44	330.56
498.80	334.44
499.17	338.45
499.53	342.53
499.89	346.85
500.26	351.28
500.62	355.89
500.98	360.79
501.34	365.81
501.71	371.08
502.07	376.46
502.43	381.99
502.79	387.72
503.16	393.68
503.52	399.85
503.88	406.15
504.24	412.59
504.60	419.43
504.97	426.49
505.33	433.67
505.69	441.30
506.05	449.01
506.41	456.78
506.78	464.81
507.14	473.13
507.50	481.71
507.86	490.63
508.22	499.69
508.59	508.80
508.95	518.18
509.31	527.84
509.67	537.78
510.03	547.89
510.39	558.25
510.75	568.85
511.12	579.55
511.48	590.63
511.84	601.94
512.20	613.22
512.56	624.96
512.92	636.99
513.28	649.08
513.64	661.26
514.00	673.71
514.37	686.42
514.73	699.16
515.09	712.00
515.45	724.96
515.81	738.25
516.17	751.85
516.53	765.69
516.89	779.55
517.25	793.42
517.61	807.51
517.97	821.62
518.33	835.78
518.69	850.30
519.05	864.92
519.41	879.74
519.77	894.90
520.13	909.94
520.49	924.92
520.85	939.82
521.21	955.11
521.57	970.95
521.93	986.22
522.29	1002.17
522.65	1018.06
523.01	1033.81
523.37	1049.46
523.73	1065.20
524.09	1080.93
524.45	1096.77
524.81	1113.00
525.17	1129.31
525.53	1145.70
525.89	1162.04
526.25	1178.50
526.61	1194.47
526.97	1210.74
527.33	1226.86
527.68	1242.93
528.04	1258.91
528.40	1275.17
528.76	1291.84
529.12	1307.98
529.48	1324.57
529.84	1340.21
530.20	1356.21
530.56	1372.75
530.91	1389.73
531.27	1406.26
531.63	1422.29
531.99	1438.42
532.35	1454.09
532.71	1469.71
533.07	1485.72
533.42	1501.33
533.78	1517.01
534.14	1532.96
534.50	1547.98
534.86	1563.39
535.21	1578.31
535.57	1593.89
535.93	1608.98
536.29	1623.39
536.65	1638.16
537.00	1652.49
537.36	1667.60
537.72	1681.90
538.08	1696.12
538.44	1709.60
538.79	1723.42
539.15	1736.76
539.51	1750.38
539.87	1764.44
540.22	1777.81
540.58	1791.27
540.94	1804.28
541.29	1816.93
541.65	1829.44
542.01	1842.47
542.37	1854.79
542.72	1867.22
543.08	1879.01
543.44	1891.28
543.79	1902.61
544.15	1913.48
544.51	1925.18
544.87	1935.99
545.22	1946.78
545.58	1957.12
545.94	1966.99
546.29	1976.61
546.65	1986.75
547.01	1996.10
547.36	2004.81
547.72	2013.44
548.07	2021.61
548.43	2029.98
548.79	2037.91
549.14	2045.70
549.50	2053.18
549.86	2060.83
550.21	2068.15
550.57	2075.49
550.92	2082.42
551.28	2089.72
551.64	2097.10
551.99	2103.63
552.35	2110.20
552.70	2116.72
553.06	2122.92
553.41	2129.51
553.77	2135.72
554.13	2141.88
554.48	2148.28
554.84	2154.33
555.19	2159.87
555.55	2165.23
555.90	2170.11
556.26	2175.64
556.61	2180.59
556.97	2185.37
557.32	2189.92
557.68	2194.39
558.03	2199.00
558.39	2202.82
558.74	2207.68
559.10	2211.86
559.45	2215.87
559.81	2220.41
560.16	2224.55
560.52	2228.16
560.87	2231.88
561.23	2234.87
561.58	2238.05
561.94	2240.96
562.29	2243.35
562.64	2246.51
563.00	2249.40
563.35	2253.27
563.71	2256.59
564.06	2260.06
564.42	2263.30
564.77	2266.26
565.12	2269.12
565.48	2271.58
565.83	2274.05
566.19	2275.81
566.54	2277.09
566.89	2278.78
567.25	2279.82
567.60	2281.47
567.96	2283.53
568.31	2284.74
568.66	2286.29
569.02	2287.36
569.37	2287.90
569.72	2289.34
570.08	2289.92
570.43	2290.44
570.78	2290.18
571.14	2289.08
571.49	2288.23
571.84	2288.15
572.20	2287.52
572.55	2286.72
572.90	2285.23
573.26	2284.18
573.61	2282.56
573.96	2281.31
574.31	2278.72
574.67	2276.18
575.02	2272.90
575.37	2269.87
575.72	2266.61
576.08	2263.56
576.43	2260.47
576.78	2257.40
577.13	2254.31
577.49	2251.38
577.84	2248.23
578.19	2244.86
578.54	2241.58
578.90	2237.73
579.25	2232.64
579.60	2228.01
579.95	2223.45
580.30	2218.84
580.66	2214.02
581.01	2209.41
581.36	2204.77
581.71	2200.92
582.06	2196.71
582.42	2192.61
582.77	2187.68
583.12	2183.38
583.47	2179.21
583.82	2174.68
584.17	2169.75
584.53	2164.58
584.88	2159.27
585.23	2153.84
585.58	2148.46
585.93	2143.12
586.28	2138.41
586.63	2133.55
586.98	2128.56
587.34	2123.99
587.69	2119.30
588.04	2114.46
588.39	2109.07
588.74	2102.66
589.09	2096.65
589.44	2090.19
589.79	2084.20
590.14	2078.64
590.49	2072.18
590.84	2065.77
591.19	2059.91
591.54	2053.55
591.89	2046.61
592.25	2040.20
592.60	2033.20
592.95	2026.06
593.30	2018.97
593.65	2011.64
594.00	2004.80
594.35	1997.74
594.70	1989.61
595.05	1982.74
595.40	1975.38
595.75	1968.10
596.10	1962.23
596.45	1955.77
596.80	1949.76
597.15	1943.38
597.50	1936.72
597.85	1930.35
598.19	1923.93
598.54	1917.20
598.89	1910.67
599.24	1904.72
599.59	1898.34
599.94	1892.00
600.29	1885.67
600.64	1879.13
600.99	1871.82
601.34	1865.14
601.69	1858.05
602.04	1851.55
602.39	1844.21
602.74	1837.49
603.08	1830.94
603.43	1824.16
603.78	1816.88
604.13	1809.66
604.48	1802.56
604.83	1795.71
605.18	1789.07
605.53	1781.22
605.87	1773.08
606.22	1765.83
606.57	1757.93
606.92	1750.21
607.27	1743.24
607.62	1736.42
607.96	1729.31
608.31	1722.86
608.66	1715.24
609.01	1707.94
609.36	1700.36
609.70	1692.38
610.05	1684.45
610.40	1676.86
610.75	1668.60
611.10	1660.81
611.44	1652.21
611.79	1644.03
612.14	1635.36
612.49	1625.99
612.83	1617.44
613.18	1609.18
613.53	1601.16
613.88	1592.55
614.22	1584.36
614.57	1575.59
614.92	1567.41
615.27	1559.87
615.61	1551.48
615.96	1543.30
616.31	1535.49
616.65	1528.11
617.00	1520.44
617.35	1512.58
617.70	1504.16
618.04	1495.69
618.39	1487.42
618.74	1479.97
619.08	1471.61
619.43	1463.78
619.78	1456.68
620.12	1449.59
620.47	1442.03
620.82	1433.67
621.16	1426.02
621.51	1418.19
621.85	1410.49
622.20	1401.90
622.55	1393.37
622.89	1385.36
623.24	1377.63
623.59	1370.09
623.93	1362.47
624.28	1355.09
624.62	1347.47
624.97	1340.10
625.32	1333.04
625.66	1325.86
626.01	1318.53
626.35	1311.14
626.70	1303.26
627.04	1295.64
627.39	1287.59
627.73	1280.00
628.08	1273.02
628.43	1265.86
628.77	1258.54
629.12	1250.90
629.46	1243.67
629.81	1236.13
630.15	1228.74
630.50	1221.26
630.84	1213.16
631.19	1204.95
631.53	1197.35
631.88	1189.68
632.22	1181.97
632.57	1174.53
632.91	1166.99
633.26	1159.46
633.60	1151.89
633.95	1144.65
634.29	1137.32
634.64	1130.61
634.98	1123.26
635.32	1116.03
635.67	1109.21
636.01	1102.44
636.36	1095.55
636.70	1088.95
637.05	1082.27
637.39	1075.82
637.73	1069.25
638.08	1063.25
638.42	1057.31
638.77	1050.84
639.11	1044.32
639.45	1037.90
639.80	1031.22
640.14	1024.80
640.49	1018.28
640.83	1011.97
641.17	1005.83
641.52	999.55
641.86	993.01
642.20	987.08
642.55	980.55
642.89	974.17
643.23	967.54
643.58	961.79
643.92	955.58
644.26	949.62
644.61	943.43
644.95	937.47
645.29	930.86
645.64	924.14
645.98	917.74
646.32	911.68
646.66	905.61
647.01	899.78
647.35	894.01
647.69	888.05
648.04	882.37
648.38	876.52
648.72	870.53
649.06	864.49
649.41	858.60
649.75	852.73
650.09	846.68
650.43	840.92
650.78	834.86
651.12	828.87
651.46	823.10
651.80	817.43
652.14	811.91
652.49	806.47
652.83	801.21
653.17	795.63
653.51	790.01
653.85	784.58
654.20	779.01
654.54	772.96
654.88	767.17
655.22	761.23
655.56	755.49
655.90	749.93
656.25	744.67
656.59	739.26
656.93	734.18
657.27	729.08
657.61	723.60
657.95	718.34
658.29	713.22
658.64	707.79
658.98	702.41
659.32	696.88
659.66	691.69
660.00	686.45
660.34	681.40
660.68	676.39
661.02	671.31
661.36	666.56
661.70	662.04
662.05	657.74
662.39	653.50
662.73	649.01
663.07	644.57
663.41	640.09
663.75	635.61
664.09	630.95
664.43	626.54
664.77	622.46
665.11	618.22
665.45	614.01
665.79	609.96
666.13	605.84
666.47	601.73
666.81	597.57
667.15	593.31
667.49	589.35
667.83	585.47
668.17	581.50
668.51	577.42
668.85	573.36
669.19	569.40
669.53	565.56
669.87	561.66
670.21	557.98
670.55	554.31
670.89	550.85
671.23	547.45
671.57	543.83
671.91	540.30
672.25	536.72
672.58	533.18
672.92	529.75
673.26	526.49
673.60	523.32
673.94	520.19
674.28	517.28
674.62	514.31
674.96	511.22
675.30	508.30
675.64	505.36
675.97	502.50
676.31	499.61
676.65	496.61
676.99	493.88
677.33	491.00
677.67	488.19
678.01	485.12
678.34	482.15
678.68	479.27
679.02	476.38
679.36	473.57
679.70	470.83
680.04	468.01
680.37	465.14
680.71	462.35
681.05	459.66
681.39	456.89
681.73	454.26
682.06	451.73
682.40	449.13
682.74	446.56
683.08	444.02
683.42	441.43
683.75	438.97
684.09	436.38
684.43	433.89
684.77	431.44
685.10	429.05
685.44	426.67
685.78	424.34
686.12	422.05
686.45	419.74
686.79	417.45
687.13	415.28
687.46	413.11
687.80	410.94
688.14	408.66
688.48	406.60
688.81	404.31
689.15	402.12
689.49	399.98
689.82	397.86
690.16	395.72
690.50	393.77
690.83	391.75
691.17	389.71
691.51	387.77
691.84	385.88
692.18	383.94
692.52	381.96
692.85	380.00
693.19	378.12
693.52	376.26
693.86	374.42
694.20	372.58
694.53	370.80
694.87	368.85
695.21	367.06
695.54	365.20
695.88	363.45
696.21	361.66
696.55	359.95
696.88	358.23
697.22	356.51
697.56	354.80
697.89	353.17
698.23	351.60
698.56	350.00
698.90	348.38
699.23	346.73
699.57	345.16
699.90	343.62
700.24	342.05
700.58	340.50
700.91	339.01
701.25	337.56
701.58	336.19
701.92	334.85
702.25	333.47
702.59	332.11
702.92	330.75
703.26	329.46
703.59	328.12
703.93	326.91
704.26	325.72
704.60	324.44
704.93	323.10
705.26	321.77
705.60	320.52
705.93	319.32
706.27	318.27
706.60	317.22
706.94	316.11
707.27	314.97
707.61	313.91
707.94	312.81
708.27	311.66
708.61	310.47
708.94	309.41
709.28	308.40
709.61	307.39
709.94	306.45
710.28	305.39
710.61	304.41
710.95	303.35
711.28	302.40
711.61	301.39
711.95	300.45
712.28	299.53
712.61	298.52
712.95	297.57
713.28	296.65
713.61	295.67
713.95	294.76
714.28	293.90
714.61	292.97
714.95	292.14
715.28	291.28
715.61	290.40
715.95	289.58
716.28	288.69
716.61	287.87
716.95	287.01
717.28	286.24
717.61	285.43
717.94	284.67
718.28	283.80
718.61	283.10
718.94	282.38
719.27	281.71
719.61	281.06
719.94	280.39
720.27	279.64
720.60	278.99
720.94	278.34
721.27	277.76
721.60	277.19
721.93	276.55
722.27	275.98
722.60	275.44
722.93	274.88
723.26	274.35
723.59	273.75
723.93	273.20
724.26	272.63
724.59	272.09
724.92	271.54
725.25	271.09
725.59	270.50
725.92	270.01
726.25	269.48
726.58	268.99
726.91	268.45
727.24	267.99
727.57	267.49
727.91	266.99
728.24	266.48
728.57	265.94
728.90	265.51
729.23	265.04
729.56	264.60
729.89	264.09
730.22	263.58
730.55	263.12
730.89	262.67
731.22	262.23
731.55	261.79
731.88	261.35
732.21	260.90
732.54	260.54
732.87	260.11
733.20	259.69
733.53	259.30
733.86	258.93
734.19	258.54
734.52	258.15
734.85	257.83
735.18	257.45
735.51	257.13
735.84	256.77
736.17	256.38
736.50	255.98
736.83	255.74
737.16	255.43
737.49	255.11
737.82	254.75
738.15	254.41
738.48	254.07
738.81	253.75
739.14	253.42
739.47	253.09
739.80	252.77
740.13	252.48
740.46	252.15
740.79	251.85
741.12	251.50
741.45	251.24
741.78	250.92
742.11	250.63
742.44	250.31
742.77	249.98
743.10	249.72
743.43	249.45
743.75	249.08
744.08	248.94
744.41	248.65
744.74	248.40
745.07	248.16
745.40	247.94
745.73	247.71
746.06	247.44
746.39	247.16
746.71	246.90
747.04	246.63
747.37	246.37
747.70	246.08
748.03	245.82
748.36	245.57
748.68	245.32
749.01	245.04
749.34	244.80
749.67	244.57
750.00	244.31
750.33	244.11
750.65	243.89
750.98	243.52
751.31	243.30
751.64	243.08
751.97	242.87
752.29	242.61
752.62	242.33
752.95	242.10
753.28	241.87
753.60	241.67
753.93	241.46
754.26	241.29
754.59	241.07
754.91	240.89
755.24	240.68
755.57	240.47
755.90	240.29
756.22	240.07
756.55	239.86
756.88	239.64
757.20	239.40
757.53	239.22
757.86	239.05
758.19	238.88
758.51	238.71
758.84	238.50
759.17	238.31
759.49	238.17
759.82	238.04
760.15	237.88
760.47	237.72
760.80	237.54
761.13	237.37
761.45	237.22
761.78	237.05
762.11	236.90
762.43	236.72
762.76	236.55
763.08	236.44
763.41	236.32
763.74	236.19
764.06	236.04
764.39	235.87
764.71	235.74
765.04	235.59
765.37	235.44
765.69	235.31
766.02	235.19
766.34	235.04
766.67	234.92
767.00	234.83
767.32	234.74
767.65	234.70
767.97	234.58
768.30	234.49
768.62	234.35
768.95	234.22
769.27	234.11
769.60	234.02
769.92	233.90
770.25	233.75
770.57	233.62
770.90	233.51
771.22	233.41
771.55	233.29
771.87	233.22
772.20	233.14
772.52	233.14
772.85	233.18
773.17	233.07
773.50	232.96
773.82	232.83
774.15	232.70
774.47	232.55
774.80	232.49
775.12	232.40
775.45	232.33
775.77	232.27
776.09	232.21
776.42	232.12
776.74	232.05
777.07	231.94
777.39	231.90
777.72	231.84
778.04	231.77
778.36	231.68
778.69	231.59
779.01	231.51
779.33	231.34
779.66	231.17
779.98	231.11
780.31	231.05
780.63	231.04
780.95	230.98
781.28	230.93
781.60	230.86
781.92	230.74
782.25	230.72
782.57	230.65
782.89	230.59
783.22	230.52
783.54	230.47
783.86	230.43
784.19	230.36
784.51	230.35
784.83	230.28
785.16	230.25
785.48	230.21
785.80	230.16
786.12	230.10
786.45	230.02
786.77	230.00
787.09	229.94
787.42	229.88
787.74	229.83
788.06	229.80
788.38	229.73
788.71	229.73
789.03	229.67
789.35	229.65
789.67	229.62
789.99	229.58
790.32	229.53
790.64	229.52
790.96	229.53
791.28	229.46
791.61	229.46
791.93	229.43
792.25	229.35
792.57	229.39
792.89	229.33
793.21	229.33
793.54	229.26
793.86	229.22
794.18	229.18
794.50	229.14
794.82	229.10
795.14	229.06
795.47	229.04
795.79	228.96
796.11	228.89
796.43	228.84
796.75	228.83
797.07	228.77
797.39	228.74
797.71	228.64
798.04	228.60
798.36	228.57
798.68	228.52
799.00	228.50
799.32	228.43
799.64	228.45
799.96	228.40
800.28	228.39
800.60	228.33
800.92	228.25
801.24	228.23
801.56	228.20
801.89	228.16
802.21	228.13
802.53	228.12
802.85	228.13
803.17	228.12
803.49	228.07
803.81	228.06
804.13	228.01
804.45	228.00
804.77	227.98
805.09	227.96
805.41	227.93
805.73	227.90
806.05	227.84
806.37	227.82
806.69	227.76
807.01	227.74
807.33	227.73
807.65	227.71
807.97	227.69
808.28	227.60
808.60	227.58
808.92	227.53
809.24	227.54
809.56	227.49
809.88	227.46
810.20	227.41
810.52	227.41
810.84	227.37
811.16	227.33
811.48	227.29
811.80	227.27
812.12	227.23
812.43	227.20
812.75	227.19
813.07	227.15
813.39	227.11
813.71	227.08
814.03	227.03
814.35	227.03
814.67	227.01
814.98	227.03
815.30	227.03
815.62	227.01
815.94	226.94
816.26	226.96
816.58	226.92
816.89	226.95
817.21	226.90
817.53	226.89
817.85	226.88
818.17	226.87
818.48	226.79
818.80	226.80
819.12	226.74
819.44	226.69
819.76	226.66
820.07	226.67
820.39	226.63
820.71	226.66
821.03	226.65
821.34	226.62
821.66	226.61
821.98	226.60
822.30	226.59
822.61	226.63
822.93	226.55
823.25	226.55
823.57	226.50
823.88	226.48
824.20	226.49
824.52	226.50
824.83	226.48
825.15	226.47
825.47	226.46
825.79	226.48
826.10	226.48
826.42	226.45
826.74	226.45
827.05	226.44
827.37	226.40
827.69	226.36
828.00	226.34
828.32	226.33
828.64	226.29
828.95	226.32
829.27	226.28
829.58	226.26
829.90	226.25
830.22	226.25
830.53	226.21
830.85	226.16
831.17	226.10
831.48	226.11
831.80	226.12
832.11	226.11
832.43	226.10
832.75	226.08
833.06	226.14
833.38	226.10
833.69	226.10
834.01	226.06
834.32	226.06
834.64	226.03
834.96	226.02
835.27	226.04
835.59	226.01
835.90	225.99
836.22	225.98
836.53	225.96
836.85	225.96
837.16	226.05
837.48	226.01
837.79	226.04
838.11	226.03
838.42	226.00
838.74	226.00
839.05	225.99
839.37	225.96
839.68	225.89
840.00	225.87
840.31	225.85
840.63	225.88
840.94	225.83
841.26	225.83
841.57	225.82
841.88	225.78
842.20	225.73
842.51	225.71
842.83	225.70
843.14	225.78
843.46	225.75
843.77	225.67
844.08	225.68
844.40	225.65
844.71	225.60
845.03	225.58
845.34	225.53
845.65	225.49
845.97	225.51
846.28	225.51
846.60	225.53
846.91	225.51
847.22	225.47
847.54	225.48
847.85	225.47
848.16	225.44
848.48	225.40
848.79	225.42
849.10	225.42
849.42	225.41
849.73	225.30
850.04	225.31
850.36	225.26
850.67	225.29
850.98	225.27
851.30	225.31
851.61	225.29
851.92	225.30
852.23	225.36
852.55	225.32
852.86	225.31
853.17	225.28
853.49	225.26
853.80	225.27
854.11	225.29
854.42	225.29
854.74	225.28
855.05	225.30
855.36	225.25
855.67	225.27
855.99	225.26
856.30	225.39
856.61	225.40
856.92	225.41
857.23	225.40
857.55	225.39
857.86	225.37
858.17	225.39
858.48	225.37
858.79	225.33
859.11	225.37
859.42	225.35
859.73	225.37
860.04	225.38
860.35	225.38
860.66	225.35
860.98	225.35
861.29	225.37
861.60	225.38
861.91	225.41
862.22	225.40
862.53	225.40
862.84	225.29
863.16	225.28
863.47	225.26
863.78	225.24
864.09	225.25
864.40	225.24
864.71	225.25
865.02	225.25
865.33	225.25
865.64	225.20
865.95	225.20
866.27	225.24
866.58	225.22
866.89	225.22
867.20	225.23
867.51	225.23
867.82	225.21
868.13	225.21
868.44	225.18
868.75	225.21
869.06	225.19
869.37	225.18
869.68	225.16
869.99	225.19
870.30	225.21
870.61	225.19
870.92	225.20
871.23	225.19
871.54	225.22
871.85	225.26
872.16	225.25
872.47	225.22
872.78	225.18
873.09	225.21
873.40	225.18
873.71	225.17
874.02	225.14
874.33	225.13
874.64	225.11
874.95	225.14
875.26	225.09
875.56	225.10
875.87	225.13
876.18	225.09
876.49	225.20
876.80	225.17
877.11	225.18
877.42	225.18
877.73	225.19
878.04	225.17
878.35	225.16
878.66	225.19
878.96	225.24
879.27	225.21
879.58	225.20
879.89	225.19
880.20	225.24
880.51	225.29
880.82	225.31
881.12	225.32
881.43	225.27
881.74	225.27
882.05	225.25
882.36	225.25
882.67	225.28
882.97	225.15
883.28	225.14
883.59	225.15
883.90	225.17
884.21	225.16
884.51	225.16
884.82	225.12
885.13	225.13
885.44	225.12
885.74	225.16
886.05	225.18
886.36	225.19
886.67	225.13
886.98	225.15
887.28	225.17
887.59	225.17
887.90	225.20
888.20	225.19
888.51	225.21
888.82	225.23
889.13	225.24
889.43	225.33
889.74	225.35
890.05	225.36
890.35	225.37
890.66	225.33
890.97	225.32
891.28	225.35
891.58	225.37
891.89	225.39
892.20	225.35
892.50	225.30
892.81	225.29
893.12	225.30
893.42	225.27
893.73	225.27
894.04	225.29
894.34	225.28
894.65	225.29
894.95	225.30
895.26	225.24
895.57	225.26
895.87	225.17
896.18	225.16
896.48	225.16
896.79	225.14
897.10	225.19
897.40	225.17
897.71	225.16
898.01	225.13
898.32	225.09
898.63	225.11
898.93	225.16
899.24	225.15
899.54	225.14
899.85	225.13
900.15	225.12
900.46	225.09
900.76	225.12
901.07	225.12
901.38	225.13
901.68	225.15
901.99	225.13
902.29	225.14
902.60	225.14
902.90	225.13
903.21	225.10
903.51	225.07
903.82	225.10
904.12	225.11
904.43	225.08
904.73	225.13
905.03	225.11
905.34	225.20
905.64	225.19
905.95	225.19
906.25	225.19
906.56	225.18
906.86	225.15
907.17	225.12
907.47	225.10
907.77	225.08
908.08	225.06
908.38	225.03
908.69	225.01
908.99	225.04
909.30	225.06
909.60	225.07
909.90	225.08
910.21	225.02
910.51	224.98
910.81	224.99
911.12	224.98
911.42	225.03
911.73	224.91
912.03	224.96
912.33	224.95
912.64	224.95
912.94	224.93
913.24	224.92
913.55	224.90
913.85	224.89
914.15	224.90
914.46	224.91
914.76	224.92
915.06	224.93
915.37	224.89
915.67	224.84
915.97	224.83
916.27	224.80
916.58	224.82
916.88	224.85
917.18	224.82
917.49	224.87
917.79	224.84
918.09	224.82
918.39	224.81
918.70	224.84
919.00	224.86
919.30	224.89
919.60	224.89
919.91	224.91
920.21	224.94
920.51	224.90
920.81	224.90
921.12	224.92
921.42	224.91
921.72	224.96
922.02	225.03
922.32	225.03
922.63	225.04
922.93	225.09
923.23	225.10
923.53	225.11
923.83	225.04
924.13	225.08
924.44	225.11
924.74	225.10
925.04	225.10
925.34	225.09
925.64	225.07
925.94	225.09
926.24	225.13
926.55	225.12
926.85	225.13
927.15	225.18
927.45	225.18
927.75	225.18
928.05	225.14
928.35	225.11
928.65	225.19
928.95	225.20
929.26	225.19
929.56	225.20
929.86	225.21
930.16	225.22
930.46	225.22
930.76	225.25
931.06	225.20
931.36	225.18
931.66	225.20
931.96	225.23
932.26	225.25
932.56	225.22
932.86	225.23
933.16	225.20
933.46	225.16
933.76	225.13
934.06	225.19
934.36	225.28
934.66	225.25
934.96	225.22
935.26	225.24
935.56	225.19
935.86	225.14
936.16	225.15
936.46	225.13
936.76	225.10
937.06	225.09
937.36	225.10
937.66	225.09
937.96	225.05
938.26	225.02
938.56	224.99
938.86	224.98
939.16	225.00
939.46	225.03
939.76	225.03
940.06	225.04
940.35	224.99
940.65	224.90
940.95	224.92
941.25	224.87
941.55	224.83
941.85	224.83
942.15	224.87
942.45	224.87
942.75	224.88
943.04	224.90
943.34	224.89
943.64	224.89
943.94	224.89
944.24	224.89
944.54	224.88
944.84	224.90
945.13	224.90
945.43	224.88
945.73	224.86
946.03	224.83
946.33	224.80
946.62	224.78
946.92	224.76
947.22	224.74
947.52	224.78
947.82	224.79
948.11	224.79
948.41	224.76
948.71	224.72
949.01	224.71
949.31	224.67
949.60	224.63
949.90	224.65
950.20	224.64
950.50	224.65
950.79	224.64
951.09	224.62
951.39	224.65
951.69	224.63
951.98	224.66
952.28	224.69
952.58	224.69
952.87	224.70
953.17	224.68
953.47	224.71
953.76	224.69
954.06	224.69
954.36	224.69
954.66	224.68
954.95	224.72
955.25	224.72
955.55	224.75
955.84	224.76
956.14	224.75
956.44	224.76
956.73	224.77
957.03	224.80
957.32	224.81
957.62	224.75
957.92	224.77
958.21	224.75
958.51	224.85
958.81	224.85
959.10	224.86
959.40	224.91
959.69	224.91
959.99	224.92
960.29	224.92
960.58	224.94
960.88	225.00
961.17	224.98
961.47	225.00
961.76	224.98
962.06	225.00
962.36	224.98
962.65	225.00
962.95	224.97
963.24	224.92
963.54	224.94
963.83	224.98
964.13	224.98
964.42	224.95
964.72	224.88
965.01	224.91
965.31	224.89
965.60	224.87
965.90	224.91
966.19	224.90
966.49	224.91
966.78	224.88
967.08	224.86
967.37	224.88
967.67	224.88
967.96	224.91
968.26	224.90
968.55	224.94
968.85	224.90
969.14	224.94
969.43	224.98
969.73	224.92
970.02	224.90
970.32	224.89
970.61	224.91
970.91	224.86
971.20	224.81
971.49	224.79
971.79	224.79
972.08	224.71
972.38	224.71
972.67	224.70
972.96	224.69
973.26	224.66
973.55	224.66
973.85	224.64
974.14	224.61
974.43	224.63
974.73	224.59
975.02	224.59
975.31	224.55
975.61	224.55
975.90	224.55
976.19	224.58
976.49	224.57
976.78	224.60
977.07	224.59
977.37	224.63
977.66	224.64
977.95	224.66
978.24	224.67
978.54	224.68
978.83	224.65
979.12	224.65
979.42	224.69
979.71	224.67
980.00	224.71
980.29	224.69
980.59	224.69
980.88	224.72
981.17	224.75
981.46	224.79
981.76	224.78
982.05	224.83
982.34	224.82
982.63	224.81
982.93	224.81
983.22	224.84
983.51	224.82
983.80	224.84
984.09	224.85
984.39	224.85
984.68	224.84
984.97	224.86
985.26	224.86
985.55	224.87
985.85	224.89
986.14	224.88
986.43	224.94
986.72	224.93
987.01	224.93
987.30	224.92
987.59	224.89
987.89	224.90
988.18	224.87
988.47	224.87
988.76	224.87
989.05	224.86
989.34	224.85
989.63	224.94
989.92	224.94
990.22	224.94
990.51	224.95
990.80	224.95
991.09	224.98
991.38	225.02
991.67	225.00
991.96	224.95
992.25	224.97
992.54	224.91
992.83	224.90
993.12	224.85
993.41	224.85
993.70	224.90
993.99	224.93
994.28	224.93
994.58	224.92
994.87	224.96
995.16	224.95
995.45	224.93
995.74	224.84
996.03	224.88
996.32	224.88
996.61	224.91
996.90	224.92
997.19	224.92
997.48	224.93
997.77	224.92
998.06	224.93
998.34	224.93
998.63	224.92
998.92	224.93
999.21	224.96
999.50	225.00
999.79	224.95
1000.08	224.94
1000.37	224.95
1000.66	224.96
1000.95	224.95
1001.24	224.95
1001.53	224.97
1001.82	224.97
1002.11	224.93
1002.40	224.95
1002.68	224.94
1002.97	224.98
1003.26	224.92
1003.55	224.88
1003.84	224.90
1004.13	224.95
1004.42	224.96
1004.71	224.97
1004.99	224.95
1005.28	224.96
1005.57	224.92
1005.86	224.90
1006.15	224.89
1006.44	224.86
1006.72	224.85
1007.01	224.81
1007.30	224.79
1007.59	224.76
1007.88	224.77
1008.17	224.79
1008.45	224.74
1008.74	224.70
1009.03	224.66
1009.32	224.68
1009.60	224.68
1009.89	224.66
1010.18	224.58
1010.47	224.53
1010.76	224.55
1011.04	224.51
1011.33	224.53
1011.62	224.54
1011.91	224.55
1012.19	224.54
1012.48	224.51
1012.77	224.53
1013.05	224.57
1013.34	224.58
1013.63	224.58
1013.92	224.57
1014.20	224.54
1014.49	224.54
1014.78	224.59
1015.06	224.54
1015.35	224.54
1015.64	224.52
1015.92	224.53
1016.21	224.54
1016.50	224.54
1016.78	224.55
1017.07	224.60
1017.36	224.59
1017.64	224.57
1017.93	224.59
1018.22	224.58
1018.50	224.60
1018.79	224.56
1019.08	224.52
1019.36	224.54
1019.65	224.55
1019.93	224.60
1020.22	224.61
1020.51	224.67
1020.79	224.61
1021.08	224.22
1021.36	224.44
1021.65	224.03
1021.94	224.31
1022.22	224.71
1022.51	224.76
1022.79	225.02
1023.08	224.86
1023.36	225.57
1023.65	224.21
>>>>>End Processed Spectral Data<<<<<
