SpectraSuite Data File
++++++++++++++++++++++++++++++++++++
Date: Fri Feb 01 18:13:28 EST 2013
User: group
Dark Spectrum Present: No
Reference Spectrum Present: No
Number of Sampled Component Spectra: 1
Spectrometers: USB2E7196
Integration Time (usec): 35000 (USB2E7196)
Spectra Averaged: 100 (USB2E7196)
Boxcar Smoothing: 10 (USB2E7196)
Correct for Electrical Dark: No (USB2E7196)
Strobe/Lamp Enabled: No (USB2E7196)
Correct for Detector Non-linearity: No (USB2E7196)
Correct for Stray Light: No (USB2E7196)
Number of Pixels in Processed Spectrum: 2048
>>>>>Begin Processed Spectral Data<<<<<
339.09	0.00
339.48	213.59
339.86	214.37
340.24	216.26
340.63	217.91
341.01	220.74
341.39	219.71
341.78	221.05
342.16	222.23
342.54	223.59
342.93	211.52
343.31	222.22
343.69	222.74
344.07	223.23
344.46	223.63
344.84	223.96
345.22	224.15
345.60	224.39
345.99	224.60
346.37	224.75
346.75	224.82
347.13	224.90
347.52	224.94
347.90	225.02
348.28	225.03
348.66	225.08
349.05	225.07
349.43	225.10
349.81	225.14
350.19	225.19
350.57	225.28
350.96	225.35
351.34	225.41
351.72	225.47
352.10	225.55
352.48	225.65
352.87	225.71
353.25	225.80
353.63	225.86
354.01	225.89
354.39	225.97
354.77	226.05
355.15	226.11
355.54	226.18
355.92	226.23
356.30	226.33
356.68	226.46
357.06	226.55
357.44	226.62
357.82	226.69
358.20	226.80
358.58	226.83
358.97	226.87
359.35	226.95
359.73	227.05
360.11	227.09
360.49	227.11
360.87	227.18
361.25	227.23
361.63	227.31
362.01	227.36
362.39	227.41
362.77	227.44
363.15	227.51
363.53	227.53
363.91	227.56
364.29	227.57
364.67	227.51
365.05	227.53
365.43	227.57
365.81	227.62
366.19	227.64
366.57	227.70
366.95	227.73
367.33	227.70
367.71	227.68
368.09	227.69
368.47	227.72
368.85	227.71
369.23	227.75
369.61	227.73
369.99	227.76
370.37	227.77
370.75	227.81
371.13	227.77
371.51	227.75
371.89	227.71
372.27	227.71
372.65	227.68
373.03	227.64
373.41	227.56
373.78	227.49
374.16	227.43
374.54	227.34
374.92	227.28
375.30	227.25
375.68	227.19
376.06	227.13
376.44	227.07
376.82	227.03
377.19	226.93
377.57	226.86
377.95	226.78
378.33	226.67
378.71	226.54
379.09	226.47
379.47	226.42
379.84	226.36
380.22	226.30
380.60	226.22
380.98	226.18
381.36	226.14
381.73	226.09
382.11	226.05
382.49	226.02
382.87	225.94
383.25	225.91
383.62	225.97
384.00	225.96
384.38	225.89
384.76	225.85
385.13	225.87
385.51	225.83
385.89	225.78
386.27	225.74
386.64	225.73
387.02	225.70
387.40	225.64
387.78	225.61
388.15	225.56
388.53	225.54
388.91	225.47
389.29	225.43
389.66	225.44
390.04	225.39
390.42	225.37
390.79	225.36
391.17	225.32
391.55	225.20
391.92	225.16
392.30	225.16
392.68	225.15
393.05	225.11
393.43	225.11
393.81	225.10
394.18	225.10
394.56	225.09
394.94	225.14
395.31	225.16
395.69	225.20
396.06	225.23
396.44	225.24
396.82	225.25
397.19	225.33
397.57	225.32
397.95	225.36
398.32	225.38
398.70	225.43
399.07	225.49
399.45	225.53
399.82	225.58
400.20	225.63
400.58	225.67
400.95	225.70
401.33	225.81
401.70	225.97
402.08	226.06
402.45	226.17
402.83	226.26
403.20	226.39
403.58	226.48
403.95	226.64
404.33	226.81
404.71	226.97
405.08	227.19
405.46	227.36
405.83	227.53
406.21	227.69
406.58	227.90
406.96	228.12
407.33	228.32
407.70	228.55
408.08	228.86
408.45	229.16
408.83	229.43
409.20	229.67
409.58	229.91
409.95	230.25
410.33	230.60
410.70	230.93
411.08	231.28
411.45	231.72
411.82	232.14
412.20	232.60
412.57	233.13
412.95	233.52
413.32	234.03
413.69	234.58
414.07	235.21
414.44	235.83
414.82	236.43
415.19	237.21
415.56	237.97
415.94	238.75
416.31	239.63
416.68	240.53
417.06	241.51
417.43	242.49
417.81	243.54
418.18	244.60
418.55	245.76
418.93	246.99
419.30	248.22
419.67	249.50
420.04	250.82
420.42	252.24
420.79	253.86
421.16	255.50
421.54	257.19
421.91	258.89
422.28	260.67
422.66	262.56
423.03	264.38
423.40	266.25
423.77	268.25
424.15	270.24
424.52	272.32
424.89	274.62
425.26	276.79
425.64	278.84
426.01	281.10
426.38	283.44
426.75	285.78
427.13	288.22
427.50	290.77
427.87	293.44
428.24	296.04
428.61	298.57
428.99	301.32
429.36	304.28
429.73	307.18
430.10	310.04
430.47	312.93
430.85	315.96
431.22	319.15
431.59	322.46
431.96	325.65
432.33	329.15
432.70	332.48
433.08	336.43
433.45	340.19
433.82	343.82
434.19	347.95
434.56	351.93
434.93	355.65
435.30	359.35
435.68	363.40
436.05	367.44
436.42	371.37
436.79	374.89
437.16	378.68
437.53	382.65
437.90	386.61
438.27	390.50
438.64	394.44
439.01	398.07
439.38	401.23
439.75	404.30
440.13	407.81
440.50	411.12
440.87	413.74
441.24	416.45
441.61	419.54
441.98	421.59
442.35	424.17
442.72	426.79
443.09	429.35
443.46	430.78
443.83	431.56
444.20	432.26
444.57	433.48
444.94	433.89
445.31	434.39
445.68	434.84
446.05	434.92
446.42	434.36
446.79	433.78
447.16	433.17
447.53	432.71
447.90	431.10
448.27	429.44
448.64	427.18
449.01	425.60
449.37	422.80
449.74	420.08
450.11	416.83
450.48	413.34
450.85	409.75
451.22	406.70
451.59	403.86
451.96	401.12
452.33	397.42
452.70	394.10
453.07	390.17
453.43	386.15
453.80	382.26
454.17	378.54
454.54	374.95
454.91	371.14
455.28	367.34
455.65	363.88
456.02	360.38
456.38	357.36
456.75	353.57
457.12	350.42
457.49	347.35
457.86	344.31
458.23	341.68
458.59	338.75
458.96	335.77
459.33	333.16
459.70	330.54
460.07	328.41
460.43	325.98
460.80	323.59
461.17	321.53
461.54	319.42
461.91	317.39
462.27	315.31
462.64	313.49
463.01	311.56
463.38	309.67
463.74	307.76
464.11	306.11
464.48	304.64
464.85	303.05
465.21	301.78
465.58	300.51
465.95	298.96
466.32	297.72
466.68	296.47
467.05	295.21
467.42	293.94
467.78	292.62
468.15	291.34
468.52	290.38
468.88	289.18
469.25	288.09
469.62	287.18
469.98	286.28
470.35	285.40
470.72	284.55
471.08	283.62
471.45	282.82
471.82	282.03
472.18	281.15
472.55	280.52
472.92	279.75
473.28	279.05
473.65	278.41
474.02	277.75
474.38	277.19
474.75	276.66
475.11	276.14
475.48	275.69
475.85	275.34
476.21	274.99
476.58	274.66
476.94	274.41
477.31	274.12
477.67	273.83
478.04	273.58
478.41	273.41
478.77	273.35
479.14	273.21
479.50	273.11
479.87	273.12
480.23	273.13
480.60	273.10
480.96	273.10
481.33	273.28
481.69	273.44
482.06	273.55
482.42	273.68
482.79	273.88
483.15	274.18
483.52	274.51
483.88	274.79
484.25	275.16
484.61	275.54
484.98	275.93
485.34	276.47
485.71	277.08
486.07	277.72
486.44	278.23
486.80	278.96
487.17	279.75
487.53	280.60
487.90	281.47
488.26	282.46
488.62	283.52
488.99	284.52
489.35	285.62
489.72	286.81
490.08	288.09
490.44	289.38
490.81	290.78
491.17	292.22
491.54	293.80
491.90	295.45
492.26	297.22
492.63	299.07
492.99	300.97
493.36	302.99
493.72	305.15
494.08	307.47
494.45	309.86
494.81	312.37
495.17	314.98
495.54	317.73
495.90	320.62
496.26	323.62
496.63	326.76
496.99	330.11
497.35	333.59
497.72	337.22
498.08	340.99
498.44	344.92
498.80	349.18
499.17	353.53
499.53	357.99
499.89	362.66
500.26	367.50
500.62	372.45
500.98	377.72
501.34	383.18
501.71	388.86
502.07	394.72
502.43	400.80
502.79	407.04
503.16	413.57
503.52	420.29
503.88	427.16
504.24	434.30
504.60	441.68
504.97	449.40
505.33	457.25
505.69	465.60
506.05	474.01
506.41	482.48
506.78	491.27
507.14	500.39
507.50	509.85
507.86	519.70
508.22	529.64
508.59	539.62
508.95	549.94
509.31	560.64
509.67	571.60
510.03	582.67
510.39	594.10
510.75	605.82
511.12	617.70
511.48	629.97
511.84	642.44
512.20	654.96
512.56	667.92
512.92	681.27
513.28	694.75
513.64	708.32
514.00	722.26
514.37	736.37
514.73	750.63
515.09	764.91
515.45	779.33
515.81	794.29
516.17	809.71
516.53	825.27
516.89	840.87
517.25	856.47
517.61	872.34
517.97	888.26
518.33	904.15
518.69	920.41
519.05	937.00
519.41	953.75
519.77	970.98
520.13	988.17
520.49	1005.19
520.85	1022.18
521.21	1039.65
521.57	1057.69
521.93	1075.25
522.29	1093.47
522.65	1111.56
523.01	1129.69
523.37	1147.52
523.73	1165.48
524.09	1183.51
524.45	1201.65
524.81	1220.17
525.17	1238.99
525.53	1257.92
525.89	1276.90
526.25	1295.94
526.61	1314.35
526.97	1333.22
527.33	1351.77
527.68	1370.42
528.04	1388.99
528.40	1407.81
528.76	1427.13
529.12	1445.94
529.48	1465.05
529.84	1483.24
530.20	1502.24
530.56	1521.54
530.91	1541.44
531.27	1560.55
531.63	1579.37
531.99	1598.42
532.35	1617.00
532.71	1635.33
533.07	1654.16
533.42	1672.56
533.78	1691.01
534.14	1709.91
534.50	1727.88
534.86	1746.40
535.21	1764.02
535.57	1782.53
535.93	1800.49
536.29	1817.91
536.65	1835.50
537.00	1852.88
537.36	1870.88
537.72	1887.77
538.08	1904.85
538.44	1921.11
538.79	1937.55
539.15	1953.60
539.51	1969.85
539.87	1986.76
540.22	2003.09
540.58	2019.42
540.94	2035.29
541.29	2050.86
541.65	2066.10
542.01	2081.84
542.37	2096.66
542.72	2111.82
543.08	2126.31
543.44	2141.44
543.79	2155.18
544.15	2168.71
544.51	2182.89
544.87	2196.39
545.22	2209.79
545.58	2222.47
545.94	2234.74
546.29	2247.24
546.65	2259.75
547.01	2271.45
547.36	2282.60
547.72	2293.50
548.07	2303.78
548.43	2314.24
548.79	2324.54
549.14	2334.45
549.50	2344.04
549.86	2353.93
550.21	2363.34
550.57	2372.58
550.92	2381.52
551.28	2390.80
551.64	2400.05
551.99	2408.78
552.35	2417.08
552.70	2425.52
553.06	2433.72
553.41	2442.34
553.77	2450.40
554.13	2458.62
554.48	2467.11
554.84	2474.64
555.19	2481.95
555.55	2489.11
555.90	2495.57
556.26	2502.49
556.61	2509.08
556.97	2515.40
557.32	2521.49
557.68	2527.74
558.03	2534.24
558.39	2539.61
558.74	2546.27
559.10	2552.02
559.45	2557.50
559.81	2563.55
560.16	2569.05
560.52	2573.96
560.87	2579.01
561.23	2583.28
561.58	2587.79
561.94	2591.72
562.29	2595.54
562.64	2599.79
563.00	2603.90
563.35	2609.10
563.71	2613.62
564.06	2618.35
564.42	2622.77
564.77	2626.67
565.12	2630.39
565.48	2633.35
565.83	2636.75
566.19	2639.19
566.54	2641.09
566.89	2643.45
567.25	2645.05
567.60	2647.48
567.96	2650.45
568.31	2652.38
568.66	2654.78
569.02	2656.40
569.37	2657.73
569.72	2659.64
570.08	2660.78
570.43	2661.61
570.78	2661.66
571.14	2660.76
571.49	2659.87
571.84	2660.24
572.20	2659.84
572.55	2659.26
572.90	2658.21
573.26	2657.16
573.61	2655.78
573.96	2654.68
574.31	2651.91
574.67	2649.33
575.02	2645.88
575.37	2642.40
575.72	2638.57
576.08	2634.93
576.43	2631.57
576.78	2627.78
577.13	2624.56
577.49	2621.32
577.84	2617.79
578.19	2613.95
578.54	2610.25
578.90	2606.01
579.25	2599.91
579.60	2594.62
579.95	2589.32
580.30	2583.95
580.66	2578.32
581.01	2572.87
581.36	2567.50
581.71	2562.93
582.06	2558.12
582.42	2553.27
582.77	2547.72
583.12	2542.80
583.47	2538.01
583.82	2532.75
584.17	2527.13
584.53	2521.13
584.88	2514.89
585.23	2508.65
585.58	2502.54
585.93	2496.57
586.28	2491.15
586.63	2485.65
586.98	2479.89
587.34	2474.53
587.69	2469.10
588.04	2463.22
588.39	2456.81
588.74	2449.28
589.09	2442.39
589.44	2434.53
589.79	2427.47
590.14	2420.93
590.49	2413.39
590.84	2405.88
591.19	2398.85
591.54	2391.37
591.89	2382.93
592.25	2375.22
592.60	2366.93
592.95	2358.29
593.30	2349.71
593.65	2340.93
594.00	2332.65
594.35	2324.28
594.70	2315.02
595.05	2306.72
595.40	2298.23
595.75	2289.64
596.10	2282.59
596.45	2274.76
596.80	2267.59
597.15	2260.10
597.50	2251.98
597.85	2244.33
598.19	2236.62
598.54	2228.37
598.89	2220.49
599.24	2213.58
599.59	2205.72
599.94	2198.36
600.29	2190.82
600.64	2183.04
600.99	2174.30
601.34	2166.28
601.69	2158.04
602.04	2149.89
602.39	2141.17
602.74	2133.02
603.08	2124.96
603.43	2116.76
603.78	2107.96
604.13	2099.50
604.48	2090.88
604.83	2082.62
605.18	2074.46
605.53	2064.99
605.87	2055.42
606.22	2046.81
606.57	2037.20
606.92	2028.23
607.27	2019.61
607.62	2011.35
607.96	2002.83
608.31	1994.97
608.66	1985.83
609.01	1976.79
609.36	1967.73
609.70	1958.11
610.05	1948.52
610.40	1939.34
610.75	1929.43
611.10	1920.30
611.44	1910.14
611.79	1900.44
612.14	1890.09
612.49	1879.05
612.83	1868.95
613.18	1859.17
613.53	1849.46
613.88	1839.28
614.22	1829.41
614.57	1818.90
614.92	1809.33
615.27	1800.22
615.61	1790.28
615.96	1780.65
616.31	1771.30
616.65	1762.41
617.00	1753.27
617.35	1743.94
617.70	1733.97
618.04	1723.94
618.39	1713.98
618.74	1704.92
619.08	1695.01
619.43	1685.76
619.78	1677.37
620.12	1668.77
620.47	1659.72
620.82	1649.85
621.16	1640.78
621.51	1631.46
621.85	1622.35
622.20	1611.99
622.55	1601.80
622.89	1592.29
623.24	1583.02
623.59	1574.17
623.93	1565.12
624.28	1556.42
624.62	1547.39
624.97	1538.78
625.32	1530.45
625.66	1521.96
626.01	1513.33
626.35	1504.41
626.70	1495.00
627.04	1485.77
627.39	1476.25
627.73	1467.26
628.08	1458.89
628.43	1450.27
628.77	1441.51
629.12	1432.38
629.46	1423.83
629.81	1414.85
630.15	1406.06
630.50	1397.12
630.84	1387.32
631.19	1377.66
631.53	1368.60
631.88	1359.65
632.22	1350.50
632.57	1341.69
632.91	1332.60
633.26	1323.57
633.60	1314.59
633.95	1306.06
634.29	1297.55
634.64	1289.56
634.98	1280.82
635.32	1272.19
635.67	1264.10
636.01	1256.18
636.36	1248.06
636.70	1240.19
637.05	1232.27
637.39	1224.59
637.73	1216.76
638.08	1209.68
638.42	1202.48
638.77	1194.67
639.11	1186.75
639.45	1178.98
639.80	1171.08
640.14	1163.57
640.49	1155.81
640.83	1148.32
641.17	1140.98
641.52	1133.35
641.86	1125.56
642.20	1118.52
642.55	1111.00
642.89	1103.39
643.23	1095.50
643.58	1088.66
643.92	1081.27
644.26	1074.18
644.61	1066.90
644.95	1059.82
645.29	1052.07
645.64	1044.09
645.98	1036.64
646.32	1029.61
646.66	1022.47
647.01	1015.59
647.35	1008.68
647.69	1001.74
648.04	995.13
648.38	988.25
648.72	981.25
649.06	974.11
649.41	967.09
649.75	960.08
650.09	953.02
650.43	946.24
650.78	938.97
651.12	931.92
651.46	925.15
651.80	918.44
652.14	912.08
652.49	905.73
652.83	899.71
653.17	893.09
653.51	886.33
653.85	879.93
654.20	873.24
654.54	866.14
654.88	859.35
655.22	852.29
655.56	845.55
655.90	839.06
656.25	832.99
656.59	826.66
656.93	820.64
657.27	814.53
657.61	808.14
657.95	802.19
658.29	796.21
658.64	789.94
658.98	783.67
659.32	777.15
659.66	770.97
660.00	764.67
660.34	758.78
660.68	752.99
661.02	747.11
661.36	741.57
661.70	736.32
662.05	731.19
662.39	726.16
662.73	720.82
663.07	715.65
663.41	710.25
663.75	704.97
664.09	699.58
664.43	694.36
664.77	689.49
665.11	684.41
665.45	679.51
665.79	674.71
666.13	669.85
666.47	665.00
666.81	660.13
667.15	655.25
667.49	650.62
667.83	646.08
668.17	641.44
668.51	636.63
668.85	631.82
669.19	627.28
669.53	622.76
669.87	618.29
670.21	613.98
670.55	609.73
670.89	605.68
671.23	601.61
671.57	597.51
671.91	593.31
672.25	589.13
672.58	584.90
672.92	580.82
673.26	577.00
673.60	573.30
673.94	569.65
674.28	566.17
674.62	562.70
674.96	559.03
675.30	555.65
675.64	552.14
675.97	548.85
676.31	545.45
676.65	542.02
676.99	538.76
677.33	535.37
677.67	531.99
678.01	528.40
678.34	524.97
678.68	521.53
679.02	518.19
679.36	514.96
679.70	511.82
680.04	508.59
680.37	505.29
680.71	502.03
681.05	498.89
681.39	495.72
681.73	492.56
682.06	489.62
682.40	486.58
682.74	483.63
683.08	480.66
683.42	477.59
683.75	474.56
684.09	471.58
684.43	468.60
684.77	465.75
685.10	463.00
685.44	460.24
685.78	457.55
686.12	454.87
686.45	452.13
686.79	449.41
687.13	446.85
687.46	444.23
687.80	441.62
688.14	438.97
688.48	436.48
688.81	433.86
689.15	431.32
689.49	428.77
689.82	426.28
690.16	423.79
690.50	421.51
690.83	419.26
691.17	416.91
691.51	414.67
691.84	412.49
692.18	410.18
692.52	407.83
692.85	405.52
693.19	403.32
693.52	401.14
693.86	398.95
694.20	396.79
694.53	394.68
694.87	392.51
695.21	390.39
695.54	388.26
695.88	386.22
696.21	384.19
696.55	382.19
696.88	380.24
697.22	378.25
697.56	376.28
697.89	374.37
698.23	372.47
698.56	370.60
698.90	368.68
699.23	366.78
699.57	364.97
699.90	363.19
700.24	361.35
700.58	359.53
700.91	357.83
701.25	356.13
701.58	354.53
701.92	352.90
702.25	351.33
702.59	349.74
702.92	348.14
703.26	346.58
703.59	345.07
703.93	343.62
704.26	342.23
704.60	340.70
704.93	339.17
705.26	337.70
705.60	336.31
705.93	334.93
706.27	333.67
706.60	332.41
706.94	331.10
707.27	329.80
707.61	328.57
707.94	327.31
708.27	326.00
708.61	324.68
708.94	323.47
709.28	322.32
709.61	321.16
709.94	320.04
710.28	318.79
710.61	317.61
710.95	316.35
711.28	315.24
711.61	314.13
711.95	313.04
712.28	311.93
712.61	310.78
712.95	309.66
713.28	308.58
713.61	307.52
713.95	306.49
714.28	305.45
714.61	304.44
714.95	303.42
715.28	302.45
715.61	301.40
715.95	300.38
716.28	299.28
716.61	298.26
716.95	297.27
717.28	296.38
717.61	295.49
717.94	294.62
718.28	293.65
718.61	292.76
718.94	291.93
719.27	291.15
719.61	290.37
719.94	289.57
720.27	288.77
720.60	287.96
720.94	287.21
721.27	286.50
721.60	285.79
721.93	285.09
722.27	284.41
722.60	283.79
722.93	283.19
723.26	282.62
723.59	281.97
723.93	281.31
724.26	280.67
724.59	279.98
724.92	279.36
725.25	278.81
725.59	278.23
725.92	277.62
726.25	277.01
726.58	276.41
726.91	275.87
727.24	275.29
727.57	274.75
727.91	274.14
728.24	273.59
728.57	272.99
728.90	272.41
729.23	271.85
729.56	271.34
729.89	270.72
730.22	270.15
730.55	269.63
730.89	269.11
731.22	268.59
731.55	268.07
731.88	267.59
732.21	267.05
732.54	266.50
732.87	265.97
733.20	265.43
733.53	264.95
733.86	264.48
734.19	264.03
734.52	263.54
734.85	263.16
735.18	262.69
735.51	262.26
735.84	261.84
736.17	261.42
736.50	260.93
736.83	260.65
737.16	260.23
737.49	259.79
737.82	259.33
738.15	258.93
738.48	258.56
738.81	258.17
739.14	257.78
739.47	257.45
739.80	257.10
740.13	256.76
740.46	256.36
740.79	255.98
741.12	255.61
741.45	255.26
741.78	254.86
742.11	254.51
742.44	254.17
742.77	253.80
743.10	253.44
743.43	253.11
743.75	252.67
744.08	252.48
744.41	252.16
744.74	251.89
745.07	251.53
745.40	251.21
745.73	250.88
746.06	250.55
746.39	250.21
746.71	249.92
747.04	249.60
747.37	249.29
747.70	248.97
748.03	248.69
748.36	248.42
748.68	248.13
749.01	247.84
749.34	247.52
749.67	247.25
750.00	246.95
750.33	246.72
750.65	246.44
750.98	246.05
751.31	245.78
751.64	245.54
751.97	245.38
752.29	245.09
752.62	244.82
752.95	244.58
753.28	244.31
753.60	244.03
753.93	243.82
754.26	243.63
754.59	243.36
754.91	243.10
755.24	242.80
755.57	242.57
755.90	242.38
756.22	242.15
756.55	241.94
756.88	241.72
757.20	241.45
757.53	241.23
757.86	241.02
758.19	240.80
758.51	240.58
758.84	240.32
759.17	240.11
759.49	239.92
759.82	239.74
760.15	239.57
760.47	239.41
760.80	239.18
761.13	238.99
761.45	238.84
761.78	238.65
762.11	238.53
762.43	238.35
762.76	238.14
763.08	237.99
763.41	237.83
763.74	237.67
764.06	237.50
764.39	237.35
764.71	237.18
765.04	237.02
765.37	236.87
765.69	236.71
766.02	236.58
766.34	236.42
766.67	236.26
767.00	236.17
767.32	236.08
767.65	236.00
767.97	235.90
768.30	235.74
768.62	235.63
768.95	235.48
769.27	235.36
769.60	235.25
769.92	235.10
770.25	234.96
770.57	234.85
770.90	234.69
771.22	234.60
771.55	234.48
771.87	234.41
772.20	234.29
772.52	234.30
772.85	234.31
773.17	234.19
773.50	234.07
773.82	233.92
774.15	233.80
774.47	233.65
774.80	233.52
775.12	233.43
775.45	233.34
775.77	233.26
776.09	233.17
776.42	233.07
776.74	233.05
777.07	232.99
777.39	232.91
777.72	232.84
778.04	232.74
778.36	232.67
778.69	232.59
779.01	232.50
779.33	232.31
779.66	232.13
779.98	232.06
780.31	232.03
780.63	231.99
780.95	231.90
781.28	231.85
781.60	231.77
781.92	231.69
782.25	231.61
782.57	231.53
782.89	231.46
783.22	231.42
783.54	231.35
783.86	231.25
784.19	231.17
784.51	231.14
784.83	231.06
785.16	230.95
785.48	230.88
785.80	230.83
786.12	230.77
786.45	230.70
786.77	230.64
787.09	230.56
787.42	230.48
787.74	230.43
788.06	230.36
788.38	230.31
788.71	230.27
789.03	230.23
789.35	230.21
789.67	230.11
789.99	230.07
790.32	229.97
790.64	229.92
790.96	229.94
791.28	229.88
791.61	229.85
791.93	229.85
792.25	229.81
792.57	229.83
792.89	229.79
793.21	229.77
793.54	229.73
793.86	229.68
794.18	229.64
794.50	229.59
794.82	229.56
795.14	229.53
795.47	229.48
795.79	229.43
796.11	229.37
796.43	229.37
796.75	229.31
797.07	229.29
797.39	229.27
797.71	229.17
798.04	229.14
798.36	229.09
798.68	229.03
799.00	229.00
799.32	228.91
799.64	228.89
799.96	228.84
800.28	228.81
800.60	228.75
800.92	228.70
801.24	228.63
801.56	228.60
801.89	228.55
802.21	228.54
802.53	228.48
802.85	228.48
803.17	228.47
803.49	228.43
803.81	228.38
804.13	228.33
804.45	228.33
804.77	228.26
805.09	228.25
805.41	228.21
805.73	228.16
806.05	228.12
806.37	228.09
806.69	228.05
807.01	227.99
807.33	227.98
807.65	227.97
807.97	228.00
808.28	227.99
808.60	227.97
808.92	227.92
809.24	227.94
809.56	227.86
809.88	227.80
810.20	227.77
810.52	227.79
810.84	227.79
811.16	227.74
811.48	227.76
811.80	227.74
812.12	227.72
812.43	227.71
812.75	227.69
813.07	227.65
813.39	227.63
813.71	227.62
814.03	227.58
814.35	227.57
814.67	227.54
814.98	227.47
815.30	227.45
815.62	227.43
815.94	227.35
816.26	227.40
816.58	227.36
816.89	227.33
817.21	227.28
817.53	227.25
817.85	227.25
818.17	227.22
818.48	227.19
818.80	227.23
819.12	227.23
819.44	227.18
819.76	227.15
820.07	227.12
820.39	227.09
820.71	227.09
821.03	227.07
821.34	227.02
821.66	227.03
821.98	227.04
822.30	227.03
822.61	227.09
822.93	227.01
823.25	227.01
823.57	226.95
823.88	226.97
824.20	226.93
824.52	226.90
824.83	226.85
825.15	226.81
825.47	226.74
825.79	226.72
826.10	226.72
826.42	226.73
826.74	226.73
827.05	226.73
827.37	226.70
827.69	226.64
828.00	226.65
828.32	226.60
828.64	226.58
828.95	226.63
829.27	226.61
829.58	226.61
829.90	226.58
830.22	226.62
830.53	226.57
830.85	226.54
831.17	226.50
831.48	226.49
831.80	226.45
832.11	226.44
832.43	226.39
832.75	226.34
833.06	226.37
833.38	226.33
833.69	226.32
834.01	226.32
834.32	226.30
834.64	226.26
834.96	226.30
835.27	226.27
835.59	226.19
835.90	226.14
836.22	226.11
836.53	226.12
836.85	226.08
837.16	226.16
837.48	226.15
837.79	226.17
838.11	226.16
838.42	226.15
838.74	226.17
839.05	226.15
839.37	226.16
839.68	226.09
840.00	226.09
840.31	226.08
840.63	226.05
840.94	226.03
841.26	226.01
841.57	225.96
841.88	225.95
842.20	225.94
842.51	225.93
842.83	225.91
843.14	225.93
843.46	225.94
843.77	225.87
844.08	225.87
844.40	225.83
844.71	225.82
845.03	225.83
845.34	225.81
845.65	225.83
845.97	225.82
846.28	225.84
846.60	225.84
846.91	225.81
847.22	225.81
847.54	225.83
847.85	225.83
848.16	225.81
848.48	225.78
848.79	225.81
849.10	225.81
849.42	225.84
849.73	225.78
850.04	225.74
850.36	225.70
850.67	225.71
850.98	225.74
851.30	225.73
851.61	225.73
851.92	225.70
852.23	225.70
852.55	225.70
852.86	225.67
853.17	225.66
853.49	225.69
853.80	225.69
854.11	225.69
854.42	225.69
854.74	225.68
855.05	225.71
855.36	225.66
855.67	225.65
855.99	225.63
856.30	225.77
856.61	225.79
856.92	225.77
857.23	225.77
857.55	225.74
857.86	225.75
858.17	225.78
858.48	225.80
858.79	225.79
859.11	225.77
859.42	225.78
859.73	225.78
860.04	225.79
860.35	225.77
860.66	225.73
860.98	225.74
861.29	225.78
861.60	225.78
861.91	225.78
862.22	225.79
862.53	225.80
862.84	225.65
863.16	225.67
863.47	225.72
863.78	225.72
864.09	225.74
864.40	225.75
864.71	225.75
865.02	225.77
865.33	225.78
865.64	225.81
865.95	225.83
866.27	225.88
866.58	225.85
866.89	225.89
867.20	225.91
867.51	225.87
867.82	225.87
868.13	225.89
868.44	225.90
868.75	225.94
869.06	225.91
869.37	225.93
869.68	225.91
869.99	225.88
870.30	225.86
870.61	225.86
870.92	225.85
871.23	225.83
871.54	225.81
871.85	225.82
872.16	225.79
872.47	225.77
872.78	225.72
873.09	225.73
873.40	225.69
873.71	225.69
874.02	225.69
874.33	225.67
874.64	225.65
874.95	225.66
875.26	225.59
875.56	225.60
875.87	225.60
876.18	225.60
876.49	225.72
876.80	225.70
877.11	225.67
877.42	225.67
877.73	225.64
878.04	225.63
878.35	225.64
878.66	225.61
878.96	225.59
879.27	225.55
879.58	225.54
879.89	225.52
880.20	225.53
880.51	225.56
880.82	225.56
881.12	225.52
881.43	225.47
881.74	225.46
882.05	225.45
882.36	225.47
882.67	225.47
882.97	225.34
883.28	225.31
883.59	225.30
883.90	225.27
884.21	225.30
884.51	225.30
884.82	225.25
885.13	225.27
885.44	225.26
885.74	225.29
886.05	225.28
886.36	225.30
886.67	225.25
886.98	225.27
887.28	225.25
887.59	225.27
887.90	225.26
888.20	225.26
888.51	225.26
888.82	225.21
889.13	225.21
889.43	225.27
889.74	225.29
890.05	225.33
890.35	225.33
890.66	225.29
890.97	225.27
891.28	225.29
891.58	225.28
891.89	225.29
892.20	225.24
892.50	225.23
892.81	225.21
893.12	225.23
893.42	225.17
893.73	225.18
894.04	225.14
894.34	225.17
894.65	225.17
894.95	225.15
895.26	225.16
895.57	225.22
895.87	225.12
896.18	225.14
896.48	225.14
896.79	225.14
897.10	225.21
897.40	225.23
897.71	225.22
898.01	225.24
898.32	225.25
898.63	225.24
898.93	225.29
899.24	225.29
899.54	225.29
899.85	225.28
900.15	225.33
900.46	225.35
900.76	225.36
901.07	225.37
901.38	225.37
901.68	225.38
901.99	225.30
902.29	225.31
902.60	225.31
902.90	225.28
903.21	225.27
903.51	225.20
903.82	225.19
904.12	225.19
904.43	225.16
904.73	225.16
905.03	225.18
905.34	225.21
905.64	225.22
905.95	225.23
906.25	225.25
906.56	225.20
906.86	225.20
907.17	225.20
907.47	225.19
907.77	225.18
908.08	225.19
908.38	225.21
908.69	225.20
908.99	225.21
909.30	225.23
909.60	225.21
909.90	225.21
910.21	225.22
910.51	225.22
910.81	225.23
911.12	225.26
911.42	225.29
911.73	225.20
912.03	225.21
912.33	225.21
912.64	225.20
912.94	225.20
913.24	225.21
913.55	225.18
913.85	225.18
914.15	225.18
914.46	225.15
914.76	225.14
915.06	225.14
915.37	225.12
915.67	225.14
915.97	225.17
916.27	225.18
916.58	225.16
916.88	225.15
917.18	225.16
917.49	225.24
917.79	225.19
918.09	225.19
918.39	225.20
918.70	225.19
919.00	225.19
919.30	225.21
919.60	225.22
919.91	225.22
920.21	225.22
920.51	225.23
920.81	225.22
921.12	225.24
921.42	225.28
921.72	225.28
922.02	225.27
922.32	225.30
922.63	225.29
922.93	225.34
923.23	225.34
923.53	225.31
923.83	225.21
924.13	225.27
924.44	225.30
924.74	225.31
925.04	225.34
925.34	225.35
925.64	225.32
925.94	225.29
926.24	225.35
926.55	225.34
926.85	225.34
927.15	225.35
927.45	225.37
927.75	225.36
928.05	225.37
928.35	225.34
928.65	225.32
928.95	225.34
929.26	225.31
929.56	225.36
929.86	225.39
930.16	225.39
930.46	225.35
930.76	225.33
931.06	225.31
931.36	225.29
931.66	225.33
931.96	225.34
932.26	225.36
932.56	225.32
932.86	225.34
933.16	225.31
933.46	225.32
933.76	225.28
934.06	225.28
934.36	225.32
934.66	225.34
934.96	225.34
935.26	225.33
935.56	225.34
935.86	225.28
936.16	225.25
936.46	225.24
936.76	225.22
937.06	225.22
937.36	225.22
937.66	225.21
937.96	225.19
938.26	225.15
938.56	225.14
938.86	225.14
939.16	225.13
939.46	225.17
939.76	225.20
940.06	225.18
940.35	225.16
940.65	225.11
940.95	225.10
941.25	225.08
941.55	225.07
941.85	225.05
942.15	225.06
942.45	225.10
942.75	225.11
943.04	225.14
943.34	225.17
943.64	225.14
943.94	225.11
944.24	225.12
944.54	225.17
944.84	225.18
945.13	225.17
945.43	225.20
945.73	225.19
946.03	225.16
946.33	225.13
946.62	225.12
946.92	225.12
947.22	225.14
947.52	225.11
947.82	225.13
948.11	225.15
948.41	225.15
948.71	225.09
949.01	225.10
949.31	225.04
949.60	225.03
949.90	225.04
950.20	225.05
950.50	225.00
950.79	224.96
951.09	224.93
951.39	224.91
951.69	224.90
951.98	224.91
952.28	224.91
952.58	224.97
952.87	224.94
953.17	224.92
953.47	224.87
953.76	224.91
954.06	224.83
954.36	224.82
954.66	224.79
954.95	224.84
955.25	224.81
955.55	224.86
955.84	224.83
956.14	224.85
956.44	224.86
956.73	224.87
957.03	224.89
957.32	224.91
957.62	224.93
957.92	224.93
958.21	224.90
958.51	225.01
958.81	224.98
959.10	225.05
959.40	225.08
959.69	225.10
959.99	225.10
960.29	225.16
960.58	225.14
960.88	225.20
961.17	225.16
961.47	225.19
961.76	225.17
962.06	225.20
962.36	225.19
962.65	225.18
962.95	225.17
963.24	225.15
963.54	225.16
963.83	225.13
964.13	225.13
964.42	225.12
964.72	225.03
965.01	225.03
965.31	224.96
965.60	224.96
965.90	225.03
966.19	225.01
966.49	224.99
966.78	224.98
967.08	224.96
967.37	224.97
967.67	224.95
967.96	224.93
968.26	224.91
968.55	224.94
968.85	224.94
969.14	224.98
969.43	224.98
969.73	224.98
970.02	224.97
970.32	224.96
970.61	224.98
970.91	224.94
971.20	224.97
971.49	225.01
971.79	224.99
972.08	224.93
972.38	224.96
972.67	225.01
972.96	225.05
973.26	225.02
973.55	225.06
973.85	225.04
974.14	225.09
974.43	225.09
974.73	225.07
975.02	225.05
975.31	225.06
975.61	225.05
975.90	225.03
976.19	225.04
976.49	225.04
976.78	225.06
977.07	225.07
977.37	225.07
977.66	225.08
977.95	225.11
978.24	225.10
978.54	225.11
978.83	225.06
979.12	225.02
979.42	225.02
979.71	225.00
980.00	225.00
980.29	224.98
980.59	224.96
980.88	224.99
981.17	225.01
981.46	224.99
981.76	225.01
982.05	225.02
982.34	225.04
982.63	225.05
982.93	225.04
983.22	225.07
983.51	225.04
983.80	225.03
984.09	225.00
984.39	225.00
984.68	224.95
984.97	225.01
985.26	225.04
985.55	225.09
985.85	225.05
986.14	225.07
986.43	225.05
986.72	225.05
987.01	224.98
987.30	225.01
987.59	224.97
987.89	224.96
988.18	224.94
988.47	224.93
988.76	224.92
989.05	224.89
989.34	224.88
989.63	224.90
989.92	224.89
990.22	224.89
990.51	224.87
990.80	224.90
991.09	224.87
991.38	224.89
991.67	224.84
991.96	224.87
992.25	224.90
992.54	224.90
992.83	224.93
993.12	224.96
993.41	224.95
993.70	225.02
993.99	225.05
994.28	225.07
994.58	225.08
994.87	225.10
995.16	225.14
995.45	225.14
995.74	225.13
996.03	225.15
996.32	225.13
996.61	225.21
996.90	225.22
997.19	225.23
997.48	225.23
997.77	225.23
998.06	225.23
998.34	225.23
998.63	225.22
998.92	225.21
999.21	225.22
999.50	225.23
999.79	225.18
1000.08	225.15
1000.37	225.15
1000.66	225.15
1000.95	225.16
1001.24	225.14
1001.53	225.14
1001.82	225.15
1002.11	225.14
1002.40	225.16
1002.68	225.12
1002.97	225.19
1003.26	225.16
1003.55	225.17
1003.84	225.18
1004.13	225.22
1004.42	225.21
1004.71	225.19
1004.99	225.15
1005.28	225.16
1005.57	225.15
1005.86	225.14
1006.15	225.17
1006.44	225.18
1006.72	225.15
1007.01	225.16
1007.30	225.16
1007.59	225.18
1007.88	225.19
1008.17	225.22
1008.45	225.22
1008.74	225.21
1009.03	225.15
1009.32	225.12
1009.60	225.09
1009.89	225.05
1010.18	225.00
1010.47	224.97
1010.76	224.98
1011.04	225.03
1011.33	225.03
1011.62	225.02
1011.91	225.04
1012.19	225.01
1012.48	224.99
1012.77	225.00
1013.05	225.02
1013.34	225.00
1013.63	224.97
1013.92	224.92
1014.20	224.88
1014.49	224.87
1014.78	224.84
1015.06	224.82
1015.35	224.84
1015.64	224.85
1015.92	224.89
1016.21	224.90
1016.50	224.92
1016.78	224.96
1017.07	224.94
1017.36	224.94
1017.64	224.95
1017.93	224.96
1018.22	224.97
1018.50	224.94
1018.79	224.90
1019.08	224.86
1019.36	224.90
1019.65	224.86
1019.93	224.90
1020.22	224.91
1020.51	224.99
1020.79	224.98
1021.08	224.85
1021.36	224.27
1021.65	224.31
1021.94	224.86
1022.22	225.44
1022.51	223.91
1022.79	225.44
1023.08	224.89
1023.36	226.57
1023.65	224.37
>>>>>End Processed Spectral Data<<<<<
