SpectraSuite Data File
++++++++++++++++++++++++++++++++++++
Date: Fri Feb 01 17:38:52 EST 2013
User: group
Dark Spectrum Present: No
Reference Spectrum Present: No
Number of Sampled Component Spectra: 1
Spectrometers: USB2E7196
Integration Time (usec): 35000 (USB2E7196)
Spectra Averaged: 100 (USB2E7196)
Boxcar Smoothing: 10 (USB2E7196)
Correct for Electrical Dark: No (USB2E7196)
Strobe/Lamp Enabled: No (USB2E7196)
Correct for Detector Non-linearity: No (USB2E7196)
Correct for Stray Light: No (USB2E7196)
Number of Pixels in Processed Spectrum: 2048
>>>>>Begin Processed Spectral Data<<<<<
339.09	0.00
339.48	212.82
339.86	214.72
340.24	215.45
340.63	217.56
341.01	219.76
341.39	220.02
341.78	221.67
342.16	222.73
342.54	222.92
342.93	211.58
343.31	222.29
343.69	222.85
344.07	223.29
344.46	223.74
344.84	224.13
345.22	224.37
345.60	224.64
345.99	224.80
346.37	224.94
346.75	225.07
347.13	225.13
347.52	225.19
347.90	225.23
348.28	225.24
348.66	225.27
349.05	225.26
349.43	225.32
349.81	225.34
350.19	225.36
350.57	225.38
350.96	225.43
351.34	225.51
351.72	225.58
352.10	225.70
352.48	225.75
352.87	225.78
353.25	225.82
353.63	225.86
354.01	225.93
354.39	225.99
354.77	226.04
355.15	226.14
355.54	226.18
355.92	226.23
356.30	226.33
356.68	226.47
357.06	226.52
357.44	226.53
357.82	226.60
358.20	226.65
358.58	226.68
358.97	226.75
359.35	226.78
359.73	226.84
360.11	226.87
360.49	226.96
360.87	226.96
361.25	227.04
361.63	227.11
362.01	227.11
362.39	227.11
362.77	227.14
363.15	227.14
363.53	227.14
363.91	227.17
364.29	227.17
364.67	227.08
365.05	227.12
365.43	227.13
365.81	227.15
366.19	227.18
366.57	227.23
366.95	227.22
367.33	227.17
367.71	227.16
368.09	227.13
368.47	227.09
368.85	227.12
369.23	227.12
369.61	227.05
369.99	227.07
370.37	227.09
370.75	227.08
371.13	227.02
371.51	227.00
371.89	226.97
372.27	226.92
372.65	226.88
373.03	226.83
373.41	226.78
373.78	226.71
374.16	226.63
374.54	226.54
374.92	226.49
375.30	226.45
375.68	226.40
376.06	226.37
376.44	226.32
376.82	226.25
377.19	226.21
377.57	226.14
377.95	226.06
378.33	225.99
378.71	225.86
379.09	225.80
379.47	225.75
379.84	225.64
380.22	225.60
380.60	225.53
380.98	225.46
381.36	225.41
381.73	225.36
382.11	225.29
382.49	225.27
382.87	225.16
383.25	225.11
383.62	225.16
384.00	225.08
384.38	225.02
384.76	224.99
385.13	224.96
385.51	224.91
385.89	224.86
386.27	224.81
386.64	224.81
387.02	224.81
387.40	224.81
387.78	224.80
388.15	224.78
388.53	224.76
388.91	224.73
389.29	224.70
389.66	224.68
390.04	224.68
390.42	224.66
390.79	224.69
391.17	224.66
391.55	224.55
391.92	224.56
392.30	224.56
392.68	224.53
393.05	224.51
393.43	224.55
393.81	224.57
394.18	224.55
394.56	224.57
394.94	224.58
395.31	224.57
395.69	224.62
396.06	224.64
396.44	224.68
396.82	224.70
397.19	224.76
397.57	224.78
397.95	224.85
398.32	224.86
398.70	224.90
399.07	224.97
399.45	225.00
399.82	225.05
400.20	225.06
400.58	225.12
400.95	225.14
401.33	225.22
401.70	225.35
402.08	225.44
402.45	225.50
402.83	225.59
403.20	225.66
403.58	225.69
403.95	225.81
404.33	225.95
404.71	226.06
405.08	226.22
405.46	226.36
405.83	226.47
406.21	226.60
406.58	226.72
406.96	226.90
407.33	227.08
407.70	227.27
408.08	227.53
408.45	227.79
408.83	228.01
409.20	228.18
409.58	228.36
409.95	228.63
410.33	228.91
410.70	229.14
411.08	229.46
411.45	229.81
411.82	230.12
412.20	230.45
412.57	230.88
412.95	231.19
413.32	231.58
413.69	232.05
414.07	232.50
414.44	232.97
414.82	233.47
415.19	234.04
415.56	234.62
415.94	235.20
416.31	235.86
416.68	236.55
417.06	237.31
417.43	238.02
417.81	238.80
418.18	239.58
418.55	240.48
418.93	241.39
419.30	242.34
419.67	243.33
420.04	244.34
420.42	245.39
420.79	246.62
421.16	247.82
421.54	249.02
421.91	250.32
422.28	251.67
422.66	253.04
423.03	254.41
423.40	255.76
423.77	257.23
424.15	258.67
424.52	260.21
424.89	261.88
425.26	263.55
425.64	265.08
426.01	266.80
426.38	268.53
426.75	270.29
427.13	272.06
427.50	273.92
427.87	275.89
428.24	277.83
428.61	279.66
428.99	281.72
429.36	283.94
429.73	286.11
430.10	288.22
430.47	290.38
430.85	292.61
431.22	295.00
431.59	297.51
431.96	299.88
432.33	302.50
432.70	305.00
433.08	307.91
433.45	310.71
433.82	313.43
434.19	316.45
434.56	319.40
434.93	322.19
435.30	324.93
435.68	327.95
436.05	330.94
436.42	333.88
436.79	336.53
437.16	339.40
437.53	342.35
437.90	345.34
438.27	348.18
438.64	351.14
439.01	353.84
439.38	356.16
439.75	358.43
440.13	361.04
440.50	363.45
440.87	365.36
441.24	367.38
441.61	369.67
441.98	371.25
442.35	373.13
442.72	375.08
443.09	376.97
443.46	378.01
443.83	378.63
444.20	379.13
444.57	380.03
444.94	380.30
445.31	380.64
445.68	380.96
446.05	381.08
446.42	380.70
446.79	380.29
447.16	379.83
447.53	379.47
447.90	378.32
448.27	377.14
448.64	375.52
449.01	374.34
449.37	372.25
449.74	370.29
450.11	367.95
450.48	365.42
450.85	362.83
451.22	360.64
451.59	358.51
451.96	356.53
452.33	353.77
452.70	351.33
453.07	348.41
453.43	345.42
453.80	342.55
454.17	339.75
454.54	337.09
454.91	334.27
455.28	331.52
455.65	328.87
456.02	326.31
456.38	324.05
456.75	321.22
457.12	318.86
457.49	316.51
457.86	314.23
458.23	312.26
458.59	310.10
458.96	307.90
459.33	305.94
459.70	303.96
460.07	302.41
460.43	300.61
460.80	298.89
461.17	297.38
461.54	295.80
461.91	294.30
462.27	292.77
462.64	291.46
463.01	290.00
463.38	288.68
463.74	287.28
464.11	286.04
464.48	285.01
464.85	283.84
465.21	282.92
465.58	281.94
465.95	280.79
466.32	279.84
466.68	278.90
467.05	277.99
467.42	277.05
467.78	276.08
468.15	275.16
468.52	274.46
468.88	273.53
469.25	272.71
469.62	272.09
469.98	271.34
470.35	270.68
470.72	270.03
471.08	269.31
471.45	268.78
471.82	268.22
472.18	267.60
472.55	267.19
472.92	266.66
473.28	266.18
473.65	265.76
474.02	265.29
474.38	264.89
474.75	264.53
475.11	264.17
475.48	263.89
475.85	263.66
476.21	263.45
476.58	263.28
476.94	263.10
477.31	262.90
477.67	262.81
478.04	262.70
478.41	262.66
478.77	262.72
479.14	262.64
479.50	262.66
479.87	262.73
480.23	262.79
480.60	262.87
480.96	262.98
481.33	263.16
481.69	263.37
482.06	263.60
482.42	263.83
482.79	264.13
483.15	264.47
483.52	264.88
483.88	265.20
484.25	265.60
484.61	266.06
484.98	266.54
485.34	267.11
485.71	267.74
486.07	268.37
486.44	268.96
486.80	269.66
487.17	270.39
487.53	271.21
487.90	272.08
488.26	273.00
488.62	274.00
488.99	274.98
489.35	275.99
489.72	277.11
490.08	278.28
490.44	279.53
490.81	280.85
491.17	282.14
491.54	283.62
491.90	285.12
492.26	286.77
492.63	288.45
492.99	290.18
493.36	292.03
493.72	294.06
494.08	296.14
494.45	298.32
494.81	300.66
495.17	303.06
495.54	305.59
495.90	308.24
496.26	310.93
496.63	313.86
496.99	316.95
497.35	320.17
497.72	323.54
498.08	326.95
498.44	330.55
498.80	334.46
499.17	338.43
499.53	342.53
499.89	346.81
500.26	351.28
500.62	355.90
500.98	360.76
501.34	365.76
501.71	370.95
502.07	376.31
502.43	381.82
502.79	387.50
503.16	393.39
503.52	399.58
503.88	405.89
504.24	412.41
504.60	419.19
504.97	426.11
505.33	433.31
505.69	440.88
506.05	448.48
506.41	456.19
506.78	464.22
507.14	472.52
507.50	481.05
507.86	489.88
508.22	498.89
508.59	507.93
508.95	517.19
509.31	526.76
509.67	536.61
510.03	546.64
510.39	556.99
510.75	567.57
511.12	578.12
511.48	589.12
511.84	600.23
512.20	611.39
512.56	623.01
512.92	634.81
513.28	646.87
513.64	658.92
514.00	671.30
514.37	683.82
514.73	696.48
515.09	709.06
515.45	721.89
515.81	734.99
516.17	748.55
516.53	762.29
516.89	776.08
517.25	789.93
517.61	803.90
517.97	817.84
518.33	831.94
518.69	846.34
519.05	860.85
519.41	875.58
519.77	890.60
520.13	905.45
520.49	920.42
520.85	935.24
521.21	950.43
521.57	966.10
521.93	981.38
522.29	997.18
522.65	1012.99
523.01	1028.66
523.37	1044.20
523.73	1059.76
524.09	1075.34
524.45	1090.97
524.81	1106.98
525.17	1123.14
525.53	1139.46
525.89	1155.58
526.25	1171.85
526.61	1187.70
526.97	1203.88
527.33	1219.84
527.68	1235.87
528.04	1251.78
528.40	1267.79
528.76	1284.34
529.12	1300.46
529.48	1316.79
529.84	1332.39
530.20	1348.45
530.56	1364.87
530.91	1381.78
531.27	1398.04
531.63	1414.00
531.99	1430.21
532.35	1445.76
532.71	1461.30
533.07	1477.16
533.42	1492.77
533.78	1508.41
534.14	1524.28
534.50	1539.29
534.86	1554.79
535.21	1569.85
535.57	1585.32
535.93	1600.33
536.29	1614.75
536.65	1629.33
537.00	1643.69
537.36	1658.62
537.72	1672.78
538.08	1686.90
538.44	1700.41
538.79	1714.19
539.15	1727.54
539.51	1741.02
539.87	1755.07
540.22	1768.49
540.58	1781.77
540.94	1794.62
541.29	1807.11
541.65	1819.48
542.01	1832.46
542.37	1844.57
542.72	1856.63
543.08	1868.35
543.44	1880.69
543.79	1891.96
544.15	1902.83
544.51	1914.34
544.87	1925.18
545.22	1936.05
545.58	1946.23
545.94	1955.86
546.29	1965.61
546.65	1975.58
547.01	1984.92
547.36	1993.64
547.72	2002.23
548.07	2010.66
548.43	2018.99
548.79	2027.00
549.14	2034.88
549.50	2042.25
549.86	2049.89
550.21	2057.44
550.57	2064.80
550.92	2071.53
551.28	2078.73
551.64	2086.15
551.99	2092.86
552.35	2099.28
552.70	2105.69
553.06	2112.14
553.41	2118.88
553.77	2125.11
554.13	2131.31
554.48	2137.57
554.84	2143.67
555.19	2149.07
555.55	2154.38
555.90	2159.27
556.26	2164.88
556.61	2169.80
556.97	2174.61
557.32	2179.32
557.68	2183.75
558.03	2188.26
558.39	2192.31
558.74	2197.20
559.10	2201.29
559.45	2205.26
559.81	2209.94
560.16	2214.07
560.52	2217.58
560.87	2221.25
561.23	2224.44
561.58	2227.63
561.94	2230.64
562.29	2233.18
562.64	2236.68
563.00	2239.58
563.35	2243.48
563.71	2246.81
564.06	2250.24
564.42	2253.52
564.77	2256.48
565.12	2259.37
565.48	2261.90
565.83	2264.46
566.19	2266.46
566.54	2267.71
566.89	2269.50
567.25	2270.54
567.60	2272.13
567.96	2274.47
568.31	2275.90
568.66	2277.33
569.02	2278.51
569.37	2279.37
569.72	2280.67
570.08	2281.13
570.43	2281.57
570.78	2281.62
571.14	2280.76
571.49	2279.98
571.84	2279.82
572.20	2279.21
572.55	2278.60
572.90	2277.31
573.26	2276.15
573.61	2274.53
573.96	2273.65
574.31	2271.10
574.67	2268.63
575.02	2265.52
575.37	2262.23
575.72	2258.95
576.08	2255.95
576.43	2252.76
576.78	2249.67
577.13	2246.73
577.49	2243.71
577.84	2240.81
578.19	2237.31
578.54	2234.09
578.90	2230.44
579.25	2225.46
579.60	2220.95
579.95	2216.54
580.30	2211.97
580.66	2207.43
581.01	2202.85
581.36	2198.02
581.71	2194.43
582.06	2190.42
582.42	2186.54
582.77	2181.90
583.12	2177.67
583.47	2173.54
583.82	2169.32
584.17	2164.36
584.53	2159.30
584.88	2154.24
585.23	2148.88
585.58	2143.73
585.93	2138.48
586.28	2133.88
586.63	2129.20
586.98	2124.33
587.34	2119.65
587.69	2114.93
588.04	2110.02
588.39	2104.93
588.74	2098.72
589.09	2092.67
589.44	2086.17
589.79	2080.02
590.14	2074.39
590.49	2067.96
590.84	2061.62
591.19	2055.64
591.54	2049.28
591.89	2042.32
592.25	2035.94
592.60	2028.88
592.95	2021.69
593.30	2014.51
593.65	2007.16
594.00	2000.39
594.35	1993.29
594.70	1985.29
595.05	1978.58
595.40	1971.31
595.75	1963.81
596.10	1957.96
596.45	1951.47
596.80	1945.33
597.15	1939.10
597.50	1932.53
597.85	1926.34
598.19	1919.91
598.54	1913.25
598.89	1906.83
599.24	1900.97
599.59	1894.55
599.94	1888.39
600.29	1882.01
600.64	1875.49
600.99	1868.18
601.34	1861.35
601.69	1854.36
602.04	1847.79
602.39	1840.34
602.74	1833.56
603.08	1827.05
603.43	1820.29
603.78	1813.03
604.13	1805.97
604.48	1798.96
604.83	1792.09
605.18	1785.31
605.53	1777.48
605.87	1769.58
606.22	1762.37
606.57	1754.48
606.92	1746.84
607.27	1739.90
607.62	1733.17
607.96	1726.21
608.31	1719.83
608.66	1712.39
609.01	1705.12
609.36	1697.77
609.70	1689.87
610.05	1682.07
610.40	1674.34
610.75	1666.16
611.10	1658.41
611.44	1649.96
611.79	1641.68
612.14	1632.97
612.49	1623.77
612.83	1615.24
613.18	1606.87
613.53	1598.69
613.88	1590.12
614.22	1581.81
614.57	1572.90
614.92	1564.80
615.27	1557.23
615.61	1548.91
615.96	1540.70
616.31	1532.81
616.65	1525.22
617.00	1517.63
617.35	1509.82
617.70	1501.55
618.04	1493.04
618.39	1484.73
618.74	1477.18
619.08	1468.94
619.43	1461.34
619.78	1454.18
620.12	1447.10
620.47	1439.67
620.82	1431.46
621.16	1423.76
621.51	1416.15
621.85	1408.43
622.20	1399.89
622.55	1391.30
622.89	1383.22
623.24	1375.64
623.59	1368.07
623.93	1360.43
624.28	1353.05
624.62	1345.49
624.97	1338.17
625.32	1331.12
625.66	1323.99
626.01	1316.74
626.35	1309.41
626.70	1301.51
627.04	1293.79
627.39	1285.91
627.73	1278.37
628.08	1271.28
628.43	1264.30
628.77	1257.01
629.12	1249.55
629.46	1242.22
629.81	1234.59
630.15	1227.28
630.50	1219.80
630.84	1211.72
631.19	1203.67
631.53	1196.01
631.88	1188.32
632.22	1180.67
632.57	1173.33
632.91	1165.74
633.26	1158.28
633.60	1150.60
633.95	1143.32
634.29	1136.16
634.64	1129.30
634.98	1121.91
635.32	1114.82
635.67	1107.95
636.01	1101.09
636.36	1094.25
636.70	1087.66
637.05	1081.13
637.39	1074.49
637.73	1067.89
638.08	1061.90
638.42	1055.94
638.77	1049.53
639.11	1042.96
639.45	1036.52
639.80	1029.86
640.14	1023.56
640.49	1016.95
640.83	1010.71
641.17	1004.56
641.52	998.27
641.86	991.83
642.20	985.88
642.55	979.39
642.89	972.98
643.23	966.37
643.58	960.49
643.92	954.34
644.26	948.32
644.61	942.23
644.95	936.20
645.29	929.67
645.64	922.90
645.98	916.46
646.32	910.37
646.66	904.25
647.01	898.39
647.35	892.62
647.69	886.65
648.04	881.04
648.38	875.18
648.72	869.24
649.06	863.21
649.41	857.25
649.75	851.41
650.09	845.38
650.43	839.65
650.78	833.46
651.12	827.47
651.46	821.66
651.80	816.13
652.14	810.63
652.49	805.26
652.83	800.09
653.17	794.58
653.51	789.00
653.85	783.55
654.20	777.93
654.54	771.89
654.88	766.19
655.22	760.28
655.56	754.51
655.90	748.95
656.25	743.62
656.59	738.24
656.93	733.08
657.27	727.89
657.61	722.44
657.95	717.36
658.29	712.21
658.64	706.86
658.98	701.41
659.32	695.94
659.66	690.69
660.00	685.45
660.34	680.47
660.68	675.53
661.02	670.46
661.36	665.76
661.70	661.24
662.05	656.88
662.39	652.64
662.73	648.25
663.07	643.80
663.41	639.45
663.75	635.07
664.09	630.52
664.43	626.20
664.77	622.14
665.11	617.91
665.45	613.81
665.79	609.82
666.13	605.75
666.47	601.65
666.81	597.53
667.15	593.30
667.49	589.29
667.83	585.39
668.17	581.46
668.51	577.41
668.85	573.39
669.19	569.42
669.53	565.52
669.87	561.72
670.21	558.06
670.55	554.30
670.89	550.76
671.23	547.28
671.57	543.67
671.91	540.11
672.25	536.57
672.58	533.02
672.92	529.56
673.26	526.25
673.60	523.05
673.94	519.95
674.28	516.97
674.62	514.05
674.96	510.96
675.30	508.07
675.64	505.11
675.97	502.29
676.31	499.46
676.65	496.51
676.99	493.68
677.33	490.78
677.67	487.93
678.01	484.96
678.34	481.97
678.68	479.11
679.02	476.28
679.36	473.48
679.70	470.76
680.04	468.02
680.37	465.28
680.71	462.45
681.05	459.75
681.39	457.05
681.73	454.33
682.06	451.80
682.40	449.22
682.74	446.64
683.08	444.05
683.42	441.39
683.75	438.87
684.09	436.33
684.43	433.78
684.77	431.29
685.10	428.86
685.44	426.55
685.78	424.20
686.12	421.87
686.45	419.55
686.79	417.20
687.13	414.96
687.46	412.71
687.80	410.57
688.14	408.29
688.48	406.24
688.81	404.07
689.15	401.91
689.49	399.75
689.82	397.67
690.16	395.53
690.50	393.56
690.83	391.57
691.17	389.49
691.51	387.61
691.84	385.79
692.18	383.86
692.52	381.89
692.85	379.95
693.19	378.07
693.52	376.24
693.86	374.40
694.20	372.60
694.53	370.81
694.87	368.97
695.21	367.17
695.54	365.27
695.88	363.47
696.21	361.69
696.55	359.96
696.88	358.21
697.22	356.54
697.56	354.90
697.89	353.24
698.23	351.70
698.56	350.09
698.90	348.49
699.23	346.87
699.57	345.30
699.90	343.74
700.24	342.18
700.58	340.64
700.91	339.15
701.25	337.69
701.58	336.29
701.92	334.89
702.25	333.54
702.59	332.18
702.92	330.87
703.26	329.54
703.59	328.28
703.93	327.11
704.26	325.87
704.60	324.58
704.93	323.30
705.26	322.03
705.60	320.80
705.93	319.59
706.27	318.54
706.60	317.47
706.94	316.31
707.27	315.13
707.61	313.97
707.94	312.88
708.27	311.74
708.61	310.62
708.94	309.55
709.28	308.50
709.61	307.53
709.94	306.54
710.28	305.53
710.61	304.51
710.95	303.38
711.28	302.45
711.61	301.46
711.95	300.54
712.28	299.58
712.61	298.58
712.95	297.67
713.28	296.74
713.61	295.81
713.95	294.94
714.28	294.10
714.61	293.27
714.95	292.45
715.28	291.63
715.61	290.74
715.95	289.91
716.28	289.05
716.61	288.19
716.95	287.34
717.28	286.51
717.61	285.71
717.94	284.97
718.28	284.14
718.61	283.40
718.94	282.67
719.27	281.98
719.61	281.34
719.94	280.64
720.27	279.87
720.60	279.18
720.94	278.53
721.27	277.91
721.60	277.28
721.93	276.64
722.27	276.05
722.60	275.46
722.93	274.84
723.26	274.31
723.59	273.74
723.93	273.17
724.26	272.58
724.59	272.01
724.92	271.45
725.25	270.96
725.59	270.44
725.92	269.88
726.25	269.35
726.58	268.81
726.91	268.31
727.24	267.83
727.57	267.38
727.91	266.82
728.24	266.34
728.57	265.86
728.90	265.38
729.23	264.90
729.56	264.49
729.89	264.05
730.22	263.54
730.55	263.07
730.89	262.64
731.22	262.23
731.55	261.82
731.88	261.40
732.21	260.97
732.54	260.50
732.87	260.10
733.20	259.66
733.53	259.26
733.86	258.87
734.19	258.50
734.52	258.08
734.85	257.80
735.18	257.39
735.51	257.07
735.84	256.71
736.17	256.34
736.50	255.89
736.83	255.65
737.16	255.33
737.49	255.00
737.82	254.64
738.15	254.30
738.48	253.93
738.81	253.63
739.14	253.30
739.47	252.99
739.80	252.70
740.13	252.40
740.46	252.11
740.79	251.77
741.12	251.45
741.45	251.15
741.78	250.78
742.11	250.51
742.44	250.15
742.77	249.83
743.10	249.51
743.43	249.23
743.75	248.86
744.08	248.72
744.41	248.45
744.74	248.18
745.07	247.91
745.40	247.64
745.73	247.41
746.06	247.12
746.39	246.87
746.71	246.58
747.04	246.28
747.37	246.00
747.70	245.75
748.03	245.49
748.36	245.25
748.68	245.02
749.01	244.74
749.34	244.50
749.67	244.29
750.00	244.07
750.33	243.91
750.65	243.67
750.98	243.28
751.31	243.01
751.64	242.82
751.97	242.68
752.29	242.49
752.62	242.19
752.95	241.99
753.28	241.73
753.60	241.51
753.93	241.36
754.26	241.17
754.59	240.94
754.91	240.73
755.24	240.51
755.57	240.31
755.90	240.11
756.22	239.92
756.55	239.69
756.88	239.46
757.20	239.23
757.53	239.03
757.86	238.83
758.19	238.67
758.51	238.46
758.84	238.25
759.17	238.07
759.49	237.93
759.82	237.79
760.15	237.68
760.47	237.54
760.80	237.38
761.13	237.22
761.45	237.10
761.78	236.96
762.11	236.82
762.43	236.67
762.76	236.54
763.08	236.43
763.41	236.29
763.74	236.18
764.06	236.01
764.39	235.89
764.71	235.75
765.04	235.63
765.37	235.50
765.69	235.33
766.02	235.16
766.34	235.03
766.67	234.88
767.00	234.76
767.32	234.69
767.65	234.61
767.97	234.52
768.30	234.42
768.62	234.30
768.95	234.19
769.27	234.11
769.60	234.00
769.92	233.87
770.25	233.75
770.57	233.66
770.90	233.59
771.22	233.47
771.55	233.42
771.87	233.31
772.20	233.22
772.52	233.22
772.85	233.25
773.17	233.14
773.50	233.04
773.82	232.92
774.15	232.76
774.47	232.59
774.80	232.49
775.12	232.36
775.45	232.29
775.77	232.20
776.09	232.08
776.42	232.00
776.74	231.94
777.07	231.88
777.39	231.83
777.72	231.71
778.04	231.65
778.36	231.56
778.69	231.50
779.01	231.40
779.33	231.23
779.66	231.06
779.98	230.98
780.31	230.90
780.63	230.90
780.95	230.87
781.28	230.80
781.60	230.72
781.92	230.67
782.25	230.61
782.57	230.53
782.89	230.52
783.22	230.44
783.54	230.35
783.86	230.27
784.19	230.22
784.51	230.22
784.83	230.18
785.16	230.11
785.48	230.04
785.80	230.01
786.12	229.97
786.45	229.94
786.77	229.89
787.09	229.87
787.42	229.76
787.74	229.69
788.06	229.64
788.38	229.57
788.71	229.54
789.03	229.45
789.35	229.43
789.67	229.32
789.99	229.29
790.32	229.25
790.64	229.20
790.96	229.18
791.28	229.09
791.61	229.05
791.93	229.01
792.25	229.01
792.57	229.03
792.89	228.95
793.21	228.92
793.54	228.87
793.86	228.82
794.18	228.78
794.50	228.71
794.82	228.69
795.14	228.67
795.47	228.63
795.79	228.61
796.11	228.56
796.43	228.54
796.75	228.48
797.07	228.47
797.39	228.43
797.71	228.35
798.04	228.34
798.36	228.30
798.68	228.28
799.00	228.23
799.32	228.14
799.64	228.17
799.96	228.14
800.28	228.17
800.60	228.15
800.92	228.13
801.24	228.13
801.56	228.11
801.89	228.12
802.21	228.09
802.53	228.05
802.85	228.06
803.17	228.06
803.49	228.04
803.81	227.96
804.13	227.92
804.45	227.87
804.77	227.83
805.09	227.82
805.41	227.78
805.73	227.74
806.05	227.71
806.37	227.69
806.69	227.65
807.01	227.58
807.33	227.55
807.65	227.50
807.97	227.54
808.28	227.55
808.60	227.51
808.92	227.49
809.24	227.55
809.56	227.52
809.88	227.46
810.20	227.45
810.52	227.50
810.84	227.49
811.16	227.47
811.48	227.48
811.80	227.47
812.12	227.44
812.43	227.45
812.75	227.42
813.07	227.36
813.39	227.35
813.71	227.34
814.03	227.32
814.35	227.31
814.67	227.19
814.98	227.12
815.30	227.10
815.62	227.03
815.94	226.97
816.26	226.95
816.58	226.90
816.89	226.88
817.21	226.83
817.53	226.84
817.85	226.81
818.17	226.77
818.48	226.69
818.80	226.71
819.12	226.66
819.44	226.63
819.76	226.62
820.07	226.60
820.39	226.56
820.71	226.54
821.03	226.51
821.34	226.53
821.66	226.52
821.98	226.49
822.30	226.48
822.61	226.49
822.93	226.44
823.25	226.45
823.57	226.38
823.88	226.37
824.20	226.31
824.52	226.28
824.83	226.26
825.15	226.26
825.47	226.19
825.79	226.19
826.10	226.15
826.42	226.12
826.74	226.11
827.05	226.06
827.37	226.04
827.69	226.01
828.00	225.96
828.32	225.94
828.64	225.92
828.95	225.92
829.27	225.90
829.58	225.87
829.90	225.85
830.22	225.90
830.53	225.86
830.85	225.85
831.17	225.88
831.48	225.88
831.80	225.85
832.11	225.84
832.43	225.82
832.75	225.81
833.06	225.85
833.38	225.81
833.69	225.81
834.01	225.84
834.32	225.84
834.64	225.83
834.96	225.83
835.27	225.81
835.59	225.81
835.90	225.75
836.22	225.79
836.53	225.79
836.85	225.76
837.16	225.86
837.48	225.85
837.79	225.84
838.11	225.82
838.42	225.81
838.74	225.83
839.05	225.79
839.37	225.78
839.68	225.72
840.00	225.74
840.31	225.75
840.63	225.72
840.94	225.70
841.26	225.70
841.57	225.68
841.88	225.71
842.20	225.69
842.51	225.67
842.83	225.65
843.14	225.71
843.46	225.70
843.77	225.69
844.08	225.72
844.40	225.69
844.71	225.66
845.03	225.65
845.34	225.65
845.65	225.67
845.97	225.66
846.28	225.63
846.60	225.63
846.91	225.61
847.22	225.59
847.54	225.61
847.85	225.59
848.16	225.62
848.48	225.60
848.79	225.63
849.10	225.69
849.42	225.68
849.73	225.59
850.04	225.59
850.36	225.49
850.67	225.49
850.98	225.47
851.30	225.52
851.61	225.53
851.92	225.52
852.23	225.54
852.55	225.54
852.86	225.54
853.17	225.55
853.49	225.57
853.80	225.60
854.11	225.60
854.42	225.62
854.74	225.60
855.05	225.62
855.36	225.59
855.67	225.58
855.99	225.56
856.30	225.66
856.61	225.65
856.92	225.68
857.23	225.64
857.55	225.63
857.86	225.58
858.17	225.57
858.48	225.56
858.79	225.55
859.11	225.58
859.42	225.59
859.73	225.54
860.04	225.51
860.35	225.48
860.66	225.45
860.98	225.46
861.29	225.47
861.60	225.42
861.91	225.44
862.22	225.37
862.53	225.36
862.84	225.25
863.16	225.27
863.47	225.26
863.78	225.29
864.09	225.29
864.40	225.31
864.71	225.32
865.02	225.31
865.33	225.28
865.64	225.27
865.95	225.24
866.27	225.36
866.58	225.34
866.89	225.33
867.20	225.33
867.51	225.28
867.82	225.26
868.13	225.28
868.44	225.24
868.75	225.29
869.06	225.30
869.37	225.30
869.68	225.29
869.99	225.27
870.30	225.25
870.61	225.27
870.92	225.26
871.23	225.25
871.54	225.25
871.85	225.26
872.16	225.26
872.47	225.26
872.78	225.15
873.09	225.18
873.40	225.18
873.71	225.21
874.02	225.22
874.33	225.20
874.64	225.18
874.95	225.17
875.26	225.13
875.56	225.15
875.87	225.13
876.18	225.12
876.49	225.20
876.80	225.21
877.11	225.16
877.42	225.15
877.73	225.15
878.04	225.13
878.35	225.14
878.66	225.14
878.96	225.13
879.27	225.15
879.58	225.15
879.89	225.14
880.20	225.11
880.51	225.12
880.82	225.11
881.12	225.10
881.43	225.07
881.74	225.04
882.05	225.01
882.36	225.03
882.67	225.00
882.97	224.91
883.28	224.90
883.59	224.94
883.90	224.92
884.21	224.96
884.51	224.95
884.82	224.96
885.13	224.96
885.44	224.95
885.74	224.91
886.05	224.89
886.36	224.89
886.67	224.89
886.98	224.96
887.28	224.96
887.59	224.94
887.90	224.97
888.20	225.00
888.51	225.03
888.82	224.98
889.13	224.99
889.43	225.05
889.74	225.06
890.05	225.02
890.35	225.04
890.66	225.01
890.97	225.00
891.28	224.95
891.58	224.94
891.89	224.94
892.20	224.96
892.50	224.95
892.81	224.94
893.12	224.92
893.42	224.85
893.73	224.88
894.04	224.92
894.34	224.96
894.65	224.92
894.95	224.93
895.26	224.94
895.57	224.96
895.87	224.85
896.18	224.83
896.48	224.87
896.79	224.85
897.10	224.88
897.40	224.89
897.71	224.93
898.01	224.93
898.32	224.94
898.63	224.93
898.93	224.93
899.24	224.96
899.54	224.97
899.85	224.96
900.15	224.96
900.46	224.94
900.76	224.89
901.07	224.90
901.38	224.90
901.68	224.94
901.99	224.94
902.29	224.99
902.60	224.96
902.90	224.92
903.21	224.95
903.51	224.94
903.82	224.97
904.12	224.96
904.43	224.96
904.73	224.94
905.03	224.97
905.34	225.08
905.64	225.06
905.95	225.04
906.25	225.06
906.56	225.04
906.86	225.03
907.17	225.06
907.47	225.08
907.77	225.08
908.08	225.04
908.38	225.02
908.69	225.02
908.99	225.08
909.30	225.15
909.60	225.14
909.90	225.11
910.21	225.06
910.51	225.03
910.81	225.04
911.12	225.09
911.42	225.07
911.73	224.99
912.03	225.01
912.33	225.04
912.64	225.02
912.94	224.99
913.24	224.99
913.55	224.96
913.85	224.95
914.15	224.95
914.46	224.98
914.76	225.01
915.06	225.01
915.37	224.99
915.67	224.95
915.97	224.98
916.27	225.01
916.58	225.04
916.88	225.07
917.18	225.04
917.49	225.13
917.79	225.14
918.09	225.13
918.39	225.16
918.70	225.14
919.00	225.17
919.30	225.26
919.60	225.23
919.91	225.24
920.21	225.28
920.51	225.25
920.81	225.23
921.12	225.25
921.42	225.25
921.72	225.26
922.02	225.26
922.32	225.22
922.63	225.20
922.93	225.25
923.23	225.22
923.53	225.25
923.83	225.18
924.13	225.19
924.44	225.18
924.74	225.19
925.04	225.19
925.34	225.18
925.64	225.11
925.94	225.15
926.24	225.22
926.55	225.16
926.85	225.23
927.15	225.24
927.45	225.21
927.75	225.21
928.05	225.18
928.35	225.17
928.65	225.20
928.95	225.23
929.26	225.16
929.56	225.19
929.86	225.19
930.16	225.17
930.46	225.15
930.76	225.16
931.06	225.10
931.36	225.10
931.66	225.12
931.96	225.15
932.26	225.15
932.56	225.12
932.86	225.17
933.16	225.11
933.46	225.11
933.76	225.07
934.06	225.10
934.36	225.16
934.66	225.13
934.96	225.12
935.26	225.12
935.56	225.13
935.86	225.12
936.16	225.09
936.46	225.06
936.76	225.08
937.06	225.07
937.36	225.06
937.66	225.05
937.96	225.03
938.26	224.98
938.56	224.96
938.86	224.93
939.16	224.93
939.46	224.96
939.76	224.93
940.06	224.93
940.35	224.91
940.65	224.83
940.95	224.84
941.25	224.79
941.55	224.78
941.85	224.77
942.15	224.77
942.45	224.78
942.75	224.81
943.04	224.79
943.34	224.81
943.64	224.82
943.94	224.79
944.24	224.76
944.54	224.78
944.84	224.76
945.13	224.77
945.43	224.75
945.73	224.72
946.03	224.70
946.33	224.71
946.62	224.68
946.92	224.68
947.22	224.69
947.52	224.68
947.82	224.70
948.11	224.68
948.41	224.67
948.71	224.65
949.01	224.66
949.31	224.65
949.60	224.62
949.90	224.63
950.20	224.64
950.50	224.67
950.79	224.65
951.09	224.68
951.39	224.68
951.69	224.68
951.98	224.72
952.28	224.76
952.58	224.78
952.87	224.79
953.17	224.83
953.47	224.84
953.76	224.85
954.06	224.83
954.36	224.81
954.66	224.83
954.95	224.85
955.25	224.84
955.55	224.84
955.84	224.81
956.14	224.81
956.44	224.83
956.73	224.82
957.03	224.85
957.32	224.84
957.62	224.85
957.92	224.85
958.21	224.85
958.51	224.93
958.81	224.92
959.10	224.91
959.40	224.93
959.69	224.94
959.99	224.98
960.29	224.99
960.58	225.01
960.88	225.04
961.17	225.05
961.47	225.07
961.76	225.08
962.06	225.10
962.36	225.09
962.65	225.09
962.95	225.12
963.24	225.11
963.54	225.09
963.83	225.07
964.13	225.06
964.42	225.02
964.72	224.99
965.01	225.01
965.31	225.00
965.60	224.99
965.90	225.05
966.19	225.01
966.49	225.00
966.78	225.02
967.08	225.00
967.37	225.00
967.67	224.99
967.96	225.02
968.26	225.02
968.55	225.05
968.85	225.05
969.14	225.02
969.43	225.01
969.73	225.00
970.02	225.01
970.32	225.00
970.61	225.01
970.91	224.95
971.20	224.94
971.49	224.94
971.79	224.94
972.08	224.87
972.38	224.89
972.67	224.90
972.96	224.91
973.26	224.89
973.55	224.89
973.85	224.89
974.14	224.86
974.43	224.85
974.73	224.83
975.02	224.82
975.31	224.81
975.61	224.81
975.90	224.84
976.19	224.81
976.49	224.82
976.78	224.83
977.07	224.84
977.37	224.81
977.66	224.81
977.95	224.80
978.24	224.80
978.54	224.78
978.83	224.73
979.12	224.71
979.42	224.69
979.71	224.68
980.00	224.65
980.29	224.66
980.59	224.65
980.88	224.69
981.17	224.66
981.46	224.66
981.76	224.65
982.05	224.67
982.34	224.69
982.63	224.70
982.93	224.68
983.22	224.71
983.51	224.73
983.80	224.74
984.09	224.74
984.39	224.75
984.68	224.72
984.97	224.76
985.26	224.76
985.55	224.79
985.85	224.78
986.14	224.81
986.43	224.83
986.72	224.83
987.01	224.78
987.30	224.80
987.59	224.80
987.89	224.81
988.18	224.80
988.47	224.80
988.76	224.79
989.05	224.78
989.34	224.77
989.63	224.79
989.92	224.78
990.22	224.74
990.51	224.75
990.80	224.77
991.09	224.77
991.38	224.80
991.67	224.75
991.96	224.75
992.25	224.75
992.54	224.71
992.83	224.70
993.12	224.70
993.41	224.74
993.70	224.82
993.99	224.86
994.28	224.88
994.58	224.91
994.87	224.92
995.16	224.93
995.45	224.91
995.74	224.89
996.03	224.92
996.32	224.96
996.61	224.99
996.90	225.00
997.19	225.00
997.48	224.96
997.77	224.98
998.06	224.96
998.34	224.95
998.63	224.97
998.92	224.98
999.21	225.05
999.50	225.03
999.79	224.95
1000.08	224.94
1000.37	224.92
1000.66	224.85
1000.95	224.87
1001.24	224.89
1001.53	224.92
1001.82	224.89
1002.11	224.87
1002.40	224.89
1002.68	224.90
1002.97	224.94
1003.26	224.92
1003.55	224.92
1003.84	224.90
1004.13	224.96
1004.42	224.97
1004.71	225.00
1004.99	224.95
1005.28	224.94
1005.57	224.92
1005.86	224.93
1006.15	224.90
1006.44	224.86
1006.72	224.90
1007.01	224.87
1007.30	224.88
1007.59	224.84
1007.88	224.82
1008.17	224.83
1008.45	224.81
1008.74	224.76
1009.03	224.74
1009.32	224.75
1009.60	224.77
1009.89	224.77
1010.18	224.73
1010.47	224.73
1010.76	224.70
1011.04	224.69
1011.33	224.71
1011.62	224.71
1011.91	224.70
1012.19	224.73
1012.48	224.75
1012.77	224.76
1013.05	224.81
1013.34	224.76
1013.63	224.76
1013.92	224.80
1014.20	224.76
1014.49	224.75
1014.78	224.76
1015.06	224.72
1015.35	224.70
1015.64	224.71
1015.92	224.72
1016.21	224.70
1016.50	224.69
1016.78	224.70
1017.07	224.71
1017.36	224.69
1017.64	224.69
1017.93	224.68
1018.22	224.69
1018.50	224.69
1018.79	224.67
1019.08	224.64
1019.36	224.64
1019.65	224.64
1019.93	224.63
1020.22	224.64
1020.51	224.69
1020.79	224.67
1021.08	225.09
1021.36	224.56
1021.65	224.74
1021.94	224.70
1022.22	224.30
1022.51	224.85
1022.79	224.74
1023.08	224.37
1023.36	225.75
1023.65	224.27
>>>>>End Processed Spectral Data<<<<<
