SpectraSuite Data File
++++++++++++++++++++++++++++++++++++
Date: Fri Feb 01 16:47:44 EST 2013
User: group
Dark Spectrum Present: No
Reference Spectrum Present: No
Number of Sampled Component Spectra: 1
Spectrometers: USB2E7196
Integration Time (usec): 35000 (USB2E7196)
Spectra Averaged: 100 (USB2E7196)
Boxcar Smoothing: 10 (USB2E7196)
Correct for Electrical Dark: No (USB2E7196)
Strobe/Lamp Enabled: No (USB2E7196)
Correct for Detector Non-linearity: No (USB2E7196)
Correct for Stray Light: No (USB2E7196)
Number of Pixels in Processed Spectrum: 2048
>>>>>Begin Processed Spectral Data<<<<<
339.09	0.00
339.48	213.38
339.86	214.78
340.24	216.20
340.63	217.72
341.01	220.32
341.39	220.46
341.78	222.03
342.16	222.92
342.54	222.99
342.93	211.75
343.31	222.45
343.69	222.99
344.07	223.42
344.46	223.85
344.84	224.21
345.22	224.42
345.60	224.64
345.99	224.80
346.37	224.92
346.75	225.00
347.13	225.05
347.52	225.10
347.90	225.15
348.28	225.16
348.66	225.16
349.05	225.14
349.43	225.15
349.81	225.15
350.19	225.18
350.57	225.23
350.96	225.31
351.34	225.37
351.72	225.42
352.10	225.55
352.48	225.58
352.87	225.63
353.25	225.71
353.63	225.77
354.01	225.84
354.39	225.93
354.77	226.03
355.15	226.14
355.54	226.20
355.92	226.26
356.30	226.37
356.68	226.51
357.06	226.61
357.44	226.71
357.82	226.80
358.20	226.87
358.58	226.95
358.97	227.01
359.35	227.10
359.73	227.19
360.11	227.22
360.49	227.31
360.87	227.38
361.25	227.45
361.63	227.55
362.01	227.58
362.39	227.60
362.77	227.64
363.15	227.71
363.53	227.76
363.91	227.80
364.29	227.86
364.67	227.79
365.05	227.80
365.43	227.80
365.81	227.82
366.19	227.88
366.57	227.92
366.95	227.90
367.33	227.88
367.71	227.87
368.09	227.91
368.47	227.90
368.85	227.90
369.23	227.89
369.61	227.82
369.99	227.83
370.37	227.83
370.75	227.84
371.13	227.75
371.51	227.71
371.89	227.65
372.27	227.62
372.65	227.62
373.03	227.59
373.41	227.54
373.78	227.51
374.16	227.43
374.54	227.33
374.92	227.29
375.30	227.22
375.68	227.15
376.06	227.10
376.44	227.02
376.82	226.97
377.19	226.92
377.57	226.88
377.95	226.79
378.33	226.73
378.71	226.60
379.09	226.56
379.47	226.50
379.84	226.45
380.22	226.35
380.60	226.27
380.98	226.18
381.36	226.10
381.73	226.03
382.11	225.97
382.49	225.95
382.87	225.87
383.25	225.83
383.62	225.88
384.00	225.81
384.38	225.77
384.76	225.73
385.13	225.71
385.51	225.65
385.89	225.61
386.27	225.56
386.64	225.54
387.02	225.49
387.40	225.42
387.78	225.38
388.15	225.32
388.53	225.30
388.91	225.25
389.29	225.21
389.66	225.18
390.04	225.13
390.42	225.10
390.79	225.09
391.17	225.08
391.55	224.96
391.92	224.95
392.30	224.95
392.68	224.93
393.05	224.92
393.43	224.95
393.81	224.93
394.18	224.92
394.56	224.92
394.94	224.93
395.31	224.93
395.69	224.96
396.06	224.99
396.44	224.99
396.82	225.02
397.19	225.11
397.57	225.11
397.95	225.17
398.32	225.17
398.70	225.20
399.07	225.24
399.45	225.26
399.82	225.30
400.20	225.33
400.58	225.36
400.95	225.37
401.33	225.40
401.70	225.55
402.08	225.64
402.45	225.75
402.83	225.90
403.20	226.00
403.58	226.09
403.95	226.25
404.33	226.37
404.71	226.48
405.08	226.63
405.46	226.78
405.83	226.91
406.21	227.05
406.58	227.23
406.96	227.38
407.33	227.59
407.70	227.76
408.08	228.05
408.45	228.27
408.83	228.51
409.20	228.73
409.58	228.87
409.95	229.14
410.33	229.39
410.70	229.63
411.08	229.94
411.45	230.24
411.82	230.53
412.20	230.91
412.57	231.33
412.95	231.65
413.32	232.05
413.69	232.45
414.07	232.89
414.44	233.37
414.82	233.85
415.19	234.36
415.56	234.91
415.94	235.39
416.31	236.01
416.68	236.64
417.06	237.35
417.43	238.04
417.81	238.78
418.18	239.52
418.55	240.34
418.93	241.24
419.30	242.13
419.67	243.05
420.04	244.00
420.42	244.99
420.79	246.19
421.16	247.31
421.54	248.53
421.91	249.75
422.28	250.98
422.66	252.31
423.03	253.67
423.40	254.99
423.77	256.45
424.15	257.87
424.52	259.33
424.89	260.98
425.26	262.52
425.64	263.97
426.01	265.58
426.38	267.25
426.75	268.86
427.13	270.58
427.50	272.40
427.87	274.27
428.24	276.14
428.61	277.84
428.99	279.80
429.36	281.85
429.73	283.90
430.10	285.87
430.47	287.89
430.85	290.02
431.22	292.26
431.59	294.61
431.96	296.83
432.33	299.31
432.70	301.61
433.08	304.41
433.45	307.06
433.82	309.63
434.19	312.45
434.56	315.27
434.93	317.87
435.30	320.48
435.68	323.36
436.05	326.14
436.42	328.90
436.79	331.37
437.16	334.05
437.53	336.82
437.90	339.62
438.27	342.39
438.64	345.09
439.01	347.63
439.38	349.81
439.75	352.00
440.13	354.42
440.50	356.71
440.87	358.54
441.24	360.43
441.61	362.59
441.98	364.07
442.35	365.85
442.72	367.70
443.09	369.48
443.46	370.43
443.83	371.05
444.20	371.58
444.57	372.44
444.94	372.69
445.31	373.09
445.68	373.45
446.05	373.53
446.42	373.18
446.79	372.80
447.16	372.43
447.53	372.10
447.90	371.04
448.27	369.93
448.64	368.34
449.01	367.24
449.37	365.28
449.74	363.40
450.11	361.22
450.48	358.77
450.85	356.26
451.22	354.15
451.59	352.12
451.96	350.18
452.33	347.61
452.70	345.33
453.07	342.53
453.43	339.68
453.80	336.94
454.17	334.31
454.54	331.75
454.91	329.06
455.28	326.41
455.65	323.91
456.02	321.53
456.38	319.40
456.75	316.77
457.12	314.54
457.49	312.38
457.86	310.20
458.23	308.40
458.59	306.38
458.96	304.31
459.33	302.50
459.70	300.67
460.07	299.16
460.43	297.41
460.80	295.82
461.17	294.38
461.54	292.88
461.91	291.48
462.27	290.07
462.64	288.83
463.01	287.53
463.38	286.28
463.74	284.90
464.11	283.77
464.48	282.72
464.85	281.64
465.21	280.76
465.58	279.85
465.95	278.75
466.32	277.86
466.68	276.98
467.05	276.11
467.42	275.24
467.78	274.34
468.15	273.50
468.52	272.83
468.88	272.00
469.25	271.23
469.62	270.65
469.98	269.99
470.35	269.35
470.72	268.74
471.08	268.05
471.45	267.52
471.82	267.00
472.18	266.42
472.55	265.99
472.92	265.49
473.28	265.05
473.65	264.61
474.02	264.17
474.38	263.78
474.75	263.44
475.11	263.12
475.48	262.86
475.85	262.66
476.21	262.44
476.58	262.32
476.94	262.19
477.31	262.02
477.67	261.88
478.04	261.80
478.41	261.78
478.77	261.88
479.14	261.84
479.50	261.88
479.87	261.98
480.23	262.11
480.60	262.14
480.96	262.22
481.33	262.47
481.69	262.67
482.06	262.91
482.42	263.11
482.79	263.38
483.15	263.71
483.52	264.10
483.88	264.45
484.25	264.80
484.61	265.25
484.98	265.69
485.34	266.28
485.71	266.84
486.07	267.46
486.44	267.96
486.80	268.63
487.17	269.33
487.53	270.18
487.90	270.98
488.26	271.96
488.62	272.96
488.99	273.88
489.35	274.92
489.72	276.06
490.08	277.29
490.44	278.46
490.81	279.78
491.17	281.12
491.54	282.59
491.90	284.14
492.26	285.77
492.63	287.51
492.99	289.26
493.36	291.14
493.72	293.15
494.08	295.30
494.45	297.55
494.81	299.93
495.17	302.33
495.54	304.93
495.90	307.58
496.26	310.38
496.63	313.34
496.99	316.48
497.35	319.69
497.72	323.05
498.08	326.58
498.44	330.28
498.80	334.22
499.17	338.26
499.53	342.38
499.89	346.76
500.26	351.25
500.62	355.89
500.98	360.86
501.34	365.94
501.71	371.28
502.07	376.76
502.43	382.34
502.79	388.17
503.16	394.22
503.52	400.50
503.88	406.92
504.24	413.54
504.60	420.36
504.97	427.52
505.33	434.83
505.69	442.55
506.05	450.29
506.41	458.11
506.78	466.26
507.14	474.71
507.50	483.35
507.86	492.27
508.22	501.50
508.59	510.70
508.95	520.18
509.31	529.96
509.67	539.88
510.03	550.17
510.39	560.68
510.75	571.45
511.12	582.37
511.48	593.65
511.84	605.04
512.20	616.52
512.56	628.37
512.92	640.49
513.28	652.76
513.64	665.18
514.00	677.76
514.37	690.63
514.73	703.60
515.09	716.64
515.45	729.82
515.81	743.28
516.17	757.16
516.53	771.15
516.89	785.30
517.25	799.48
517.61	813.87
517.97	828.13
518.33	842.42
518.69	857.00
519.05	871.83
519.41	886.93
519.77	902.38
520.13	917.68
520.49	932.93
520.85	948.22
521.21	963.77
521.57	979.92
521.93	995.47
522.29	1011.75
522.65	1027.88
523.01	1043.98
523.37	1059.92
523.73	1075.98
524.09	1092.02
524.45	1108.06
524.81	1124.54
525.17	1140.97
525.53	1157.70
525.89	1174.59
526.25	1191.24
526.61	1207.45
526.97	1224.02
527.33	1240.31
527.68	1256.80
528.04	1273.13
528.40	1289.48
528.76	1306.37
529.12	1322.72
529.48	1339.56
529.84	1355.40
530.20	1371.83
530.56	1388.68
530.91	1405.94
531.27	1422.50
531.63	1438.83
531.99	1455.26
532.35	1471.02
532.71	1486.88
533.07	1503.03
533.42	1518.60
533.78	1534.52
534.14	1550.57
534.50	1565.74
534.86	1581.42
535.21	1596.43
535.57	1612.11
535.93	1627.41
536.29	1641.91
536.65	1656.86
537.00	1671.30
537.36	1686.34
537.72	1700.68
538.08	1714.94
538.44	1728.50
538.79	1742.27
539.15	1755.60
539.51	1769.04
539.87	1783.26
540.22	1796.75
540.58	1810.27
540.94	1823.35
541.29	1835.98
541.65	1848.46
542.01	1861.36
542.37	1873.59
542.72	1885.87
543.08	1897.52
543.44	1909.75
543.79	1920.94
544.15	1931.82
544.51	1943.32
544.87	1954.21
545.22	1964.86
545.58	1974.92
545.94	1984.43
546.29	1994.07
546.65	2003.98
547.01	2013.25
547.36	2021.71
547.72	2030.14
548.07	2037.92
548.43	2045.96
548.79	2053.92
549.14	2061.58
549.50	2068.91
549.86	2076.41
550.21	2083.55
550.57	2090.76
550.92	2097.30
551.28	2104.23
551.64	2111.24
551.99	2117.66
552.35	2123.82
552.70	2130.01
553.06	2136.04
553.41	2142.43
553.77	2148.36
554.13	2154.26
554.48	2160.42
554.84	2166.10
555.19	2171.32
555.55	2176.50
555.90	2181.04
556.26	2186.07
556.61	2190.57
556.97	2194.98
557.32	2199.15
557.68	2203.40
558.03	2207.57
558.39	2211.19
558.74	2215.89
559.10	2219.74
559.45	2223.45
559.81	2227.71
560.16	2231.42
560.52	2234.61
560.87	2237.99
561.23	2240.61
561.58	2243.50
561.94	2245.96
562.29	2248.18
562.64	2251.11
563.00	2253.60
563.35	2257.11
563.71	2260.17
564.06	2263.44
564.42	2266.36
564.77	2268.97
565.12	2271.24
565.48	2273.19
565.83	2275.27
566.19	2276.76
566.54	2277.55
566.89	2278.83
567.25	2279.34
567.60	2280.81
567.96	2282.66
568.31	2283.55
568.66	2285.02
569.02	2285.85
569.37	2286.35
569.72	2287.29
570.08	2287.47
570.43	2287.70
570.78	2287.20
571.14	2285.79
571.49	2284.47
571.84	2284.15
572.20	2283.11
572.55	2282.16
572.90	2280.55
573.26	2279.30
573.61	2277.48
573.96	2276.11
574.31	2273.17
574.67	2270.38
575.02	2266.72
575.37	2263.31
575.72	2259.69
576.08	2256.17
576.43	2252.91
576.78	2249.33
577.13	2246.21
577.49	2243.01
577.84	2239.66
578.19	2235.96
578.54	2232.47
578.90	2228.53
579.25	2223.00
579.60	2218.09
579.95	2213.22
580.30	2208.51
580.66	2203.47
581.01	2198.64
581.36	2193.66
581.71	2189.67
582.06	2185.49
582.42	2181.34
582.77	2176.24
583.12	2171.78
583.47	2167.42
583.82	2162.59
584.17	2157.50
584.53	2152.24
584.88	2146.87
585.23	2141.37
585.58	2136.04
585.93	2130.71
586.28	2126.04
586.63	2121.31
586.98	2116.40
587.34	2111.70
587.69	2106.85
588.04	2101.59
588.39	2096.08
588.74	2089.67
589.09	2083.74
589.44	2076.87
589.79	2070.66
590.14	2065.24
590.49	2058.82
590.84	2052.30
591.19	2046.34
591.54	2039.96
591.89	2032.80
592.25	2026.07
592.60	2018.77
592.95	2011.45
593.30	2004.02
593.65	1996.45
594.00	1989.27
594.35	1982.08
594.70	1974.12
595.05	1967.21
595.40	1960.10
595.75	1952.71
596.10	1946.76
596.45	1939.95
596.80	1933.96
597.15	1927.65
597.50	1920.71
597.85	1914.21
598.19	1907.86
598.54	1900.94
598.89	1894.37
599.24	1888.40
599.59	1881.88
599.94	1875.67
600.29	1869.33
600.64	1862.84
600.99	1855.46
601.34	1848.85
601.69	1841.80
602.04	1835.09
602.39	1827.77
602.74	1821.01
603.08	1814.34
603.43	1807.54
603.78	1800.25
604.13	1793.07
604.48	1785.87
604.83	1778.99
605.18	1772.40
605.53	1764.39
605.87	1756.36
606.22	1749.14
606.57	1741.26
606.92	1733.88
607.27	1727.13
607.62	1720.31
607.96	1713.26
608.31	1706.92
608.66	1699.35
609.01	1692.04
609.36	1684.55
609.70	1676.60
610.05	1668.61
610.40	1661.09
610.75	1652.95
611.10	1645.42
611.44	1637.02
611.79	1629.04
612.14	1620.51
612.49	1611.15
612.83	1602.74
613.18	1594.68
613.53	1586.66
613.88	1578.11
614.22	1569.88
614.57	1561.04
614.92	1553.13
615.27	1545.63
615.61	1537.34
615.96	1529.30
616.31	1521.53
616.65	1514.15
617.00	1506.66
617.35	1498.94
617.70	1490.62
618.04	1481.98
618.39	1473.65
618.74	1466.25
619.08	1457.92
619.43	1450.25
619.78	1443.40
620.12	1436.32
620.47	1428.90
620.82	1420.75
621.16	1413.30
621.51	1405.70
621.85	1398.04
622.20	1389.49
622.55	1381.05
622.89	1373.18
623.24	1365.52
623.59	1358.19
623.93	1350.66
624.28	1343.38
624.62	1335.90
624.97	1328.75
625.32	1322.09
625.66	1315.11
626.01	1307.83
626.35	1300.40
626.70	1292.61
627.04	1284.95
627.39	1277.15
627.73	1269.63
628.08	1262.71
628.43	1255.56
628.77	1248.21
629.12	1240.75
629.46	1233.67
629.81	1226.18
630.15	1218.88
630.50	1211.52
630.84	1203.48
631.19	1195.56
631.53	1188.07
631.88	1180.50
632.22	1172.86
632.57	1165.58
632.91	1158.14
633.26	1150.77
633.60	1143.36
633.95	1136.23
634.29	1129.22
634.64	1122.49
634.98	1115.10
635.32	1107.90
635.67	1101.27
636.01	1094.60
636.36	1087.85
636.70	1081.27
637.05	1074.78
637.39	1068.32
637.73	1061.83
638.08	1055.93
638.42	1050.00
638.77	1043.54
639.11	1037.04
639.45	1030.75
639.80	1024.19
640.14	1017.87
640.49	1011.39
640.83	1005.09
641.17	998.96
641.52	992.55
641.86	986.17
642.20	980.36
642.55	974.04
642.89	967.62
643.23	961.15
643.58	955.41
643.92	949.25
644.26	943.29
644.61	937.20
644.95	931.39
645.29	924.78
645.64	918.09
645.98	911.78
646.32	905.91
646.66	899.82
647.01	893.94
647.35	888.16
647.69	882.25
648.04	876.67
648.38	870.88
648.72	865.02
649.06	859.04
649.41	853.17
649.75	847.29
650.09	841.33
650.43	835.51
650.78	829.36
651.12	823.42
651.46	817.62
651.80	811.96
652.14	806.39
652.49	801.13
652.83	795.90
653.17	790.22
653.51	784.50
653.85	779.04
654.20	773.46
654.54	767.48
654.88	761.80
655.22	755.96
655.56	750.31
655.90	744.81
656.25	739.54
656.59	734.20
656.93	729.09
657.27	723.99
657.61	718.59
657.95	713.45
658.29	708.26
658.64	703.00
658.98	697.64
659.32	692.20
659.66	686.95
660.00	681.69
660.34	676.75
660.68	671.80
661.02	666.75
661.36	662.07
661.70	657.53
662.05	653.19
662.39	648.95
662.73	644.41
663.07	640.06
663.41	635.59
663.75	631.10
664.09	626.53
664.43	622.15
664.77	618.08
665.11	613.81
665.45	609.73
665.79	605.75
666.13	601.62
666.47	597.51
666.81	593.31
667.15	589.17
667.49	585.22
667.83	581.42
668.17	577.52
668.51	573.44
668.85	569.37
669.19	565.53
669.53	561.69
669.87	557.91
670.21	554.14
670.55	550.52
670.89	547.13
671.23	543.70
671.57	540.14
671.91	536.57
672.25	533.06
672.58	529.51
672.92	526.08
673.26	522.94
673.60	519.80
673.94	516.73
674.28	513.77
674.62	510.83
674.96	507.73
675.30	504.82
675.64	501.86
675.97	499.10
676.31	496.19
676.65	493.25
676.99	490.48
677.33	487.61
677.67	484.78
678.01	481.71
678.34	478.76
678.68	475.86
679.02	473.04
679.36	470.31
679.70	467.61
680.04	464.81
680.37	461.93
680.71	459.08
681.05	456.46
681.39	453.80
681.73	451.18
682.06	448.62
682.40	446.07
682.74	443.46
683.08	440.91
683.42	438.34
683.75	435.82
684.09	433.24
684.43	430.78
684.77	428.35
685.10	425.99
685.44	423.69
685.78	421.41
686.12	419.17
686.45	416.91
686.79	414.64
687.13	412.45
687.46	410.34
687.80	408.21
688.14	405.91
688.48	403.88
688.81	401.63
689.15	399.52
689.49	397.39
689.82	395.33
690.16	393.26
690.50	391.30
690.83	389.34
691.17	387.38
691.51	385.49
691.84	383.61
692.18	381.71
692.52	379.73
692.85	377.84
693.19	375.95
693.52	374.07
693.86	372.19
694.20	370.42
694.53	368.63
694.87	366.82
695.21	365.09
695.54	363.23
695.88	361.52
696.21	359.79
696.55	358.12
696.88	356.50
697.22	354.83
697.56	353.19
697.89	351.57
698.23	350.00
698.56	348.44
698.90	346.89
699.23	345.20
699.57	343.70
699.90	342.14
700.24	340.59
700.58	339.06
700.91	337.63
701.25	336.16
701.58	334.77
701.92	333.38
702.25	332.01
702.59	330.61
702.92	329.25
703.26	327.93
703.59	326.60
703.93	325.39
704.26	324.18
704.60	322.88
704.93	321.57
705.26	320.23
705.60	319.03
705.93	317.83
706.27	316.82
706.60	315.70
706.94	314.65
707.27	313.50
707.61	312.44
707.94	311.34
708.27	310.26
708.61	309.09
708.94	308.07
709.28	307.06
709.61	306.10
709.94	305.15
710.28	304.13
710.61	303.18
710.95	302.05
711.28	301.07
711.61	300.12
711.95	299.22
712.28	298.30
712.61	297.29
712.95	296.34
713.28	295.44
713.61	294.54
713.95	293.61
714.28	292.78
714.61	291.87
714.95	291.06
715.28	290.19
715.61	289.35
715.95	288.49
716.28	287.62
716.61	286.74
716.95	285.90
717.28	285.16
717.61	284.40
717.94	283.73
718.28	282.96
718.61	282.24
718.94	281.52
719.27	280.86
719.61	280.21
719.94	279.54
720.27	278.82
720.60	278.16
720.94	277.52
721.27	276.93
721.60	276.37
721.93	275.74
722.27	275.20
722.60	274.65
722.93	274.09
723.26	273.60
723.59	273.10
723.93	272.57
724.26	272.00
724.59	271.45
724.92	270.89
725.25	270.41
725.59	269.90
725.92	269.44
726.25	268.95
726.58	268.49
726.91	268.03
727.24	267.57
727.57	267.11
727.91	266.62
728.24	266.18
728.57	265.69
728.90	265.23
729.23	264.75
729.56	264.36
729.89	263.91
730.22	263.41
730.55	262.98
730.89	262.54
731.22	262.13
731.55	261.71
731.88	261.28
732.21	260.85
732.54	260.43
732.87	259.97
733.20	259.59
733.53	259.21
733.86	258.84
734.19	258.47
734.52	258.09
734.85	257.78
735.18	257.37
735.51	257.02
735.84	256.69
736.17	256.33
736.50	255.93
736.83	255.74
737.16	255.43
737.49	255.06
737.82	254.71
738.15	254.39
738.48	254.02
738.81	253.71
739.14	253.39
739.47	253.05
739.80	252.76
740.13	252.45
740.46	252.13
740.79	251.80
741.12	251.49
741.45	251.18
741.78	250.82
742.11	250.53
742.44	250.22
742.77	249.95
743.10	249.65
743.43	249.35
743.75	248.93
744.08	248.77
744.41	248.52
744.74	248.24
745.07	247.93
745.40	247.72
745.73	247.50
746.06	247.22
746.39	246.98
746.71	246.71
747.04	246.44
747.37	246.18
747.70	245.94
748.03	245.68
748.36	245.49
748.68	245.25
749.01	244.98
749.34	244.75
749.67	244.48
750.00	244.26
750.33	244.09
750.65	243.86
750.98	243.49
751.31	243.25
751.64	243.04
751.97	242.87
752.29	242.61
752.62	242.30
752.95	242.09
753.28	241.87
753.60	241.65
753.93	241.48
754.26	241.26
754.59	241.02
754.91	240.80
755.24	240.54
755.57	240.34
755.90	240.13
756.22	239.90
756.55	239.73
756.88	239.51
757.20	239.23
757.53	239.06
757.86	238.90
758.19	238.73
758.51	238.58
758.84	238.36
759.17	238.20
759.49	238.05
759.82	237.92
760.15	237.75
760.47	237.62
760.80	237.42
761.13	237.28
761.45	237.11
761.78	236.93
762.11	236.81
762.43	236.66
762.76	236.54
763.08	236.42
763.41	236.30
763.74	236.18
764.06	236.11
764.39	235.96
764.71	235.82
765.04	235.65
765.37	235.50
765.69	235.39
766.02	235.27
766.34	235.16
766.67	235.01
767.00	234.92
767.32	234.85
767.65	234.81
767.97	234.71
768.30	234.61
768.62	234.54
768.95	234.43
769.27	234.35
769.60	234.26
769.92	234.15
770.25	234.03
770.57	233.90
770.90	233.80
771.22	233.69
771.55	233.62
771.87	233.58
772.20	233.48
772.52	233.48
772.85	233.51
773.17	233.43
773.50	233.35
773.82	233.23
774.15	233.10
774.47	232.96
774.80	232.87
775.12	232.82
775.45	232.74
775.77	232.68
776.09	232.60
776.42	232.52
776.74	232.48
777.07	232.41
777.39	232.38
777.72	232.27
778.04	232.25
778.36	232.15
778.69	232.06
779.01	231.98
779.33	231.79
779.66	231.61
779.98	231.51
780.31	231.45
780.63	231.42
780.95	231.35
781.28	231.31
781.60	231.24
781.92	231.14
782.25	231.08
782.57	231.00
782.89	230.95
783.22	230.91
783.54	230.83
783.86	230.76
784.19	230.69
784.51	230.67
784.83	230.60
785.16	230.54
785.48	230.50
785.80	230.46
786.12	230.45
786.45	230.41
786.77	230.41
787.09	230.35
787.42	230.29
787.74	230.24
788.06	230.16
788.38	230.14
788.71	230.07
789.03	230.03
789.35	229.99
789.67	229.93
789.99	229.87
790.32	229.82
790.64	229.81
790.96	229.82
791.28	229.72
791.61	229.64
791.93	229.62
792.25	229.55
792.57	229.58
792.89	229.53
793.21	229.46
793.54	229.42
793.86	229.35
794.18	229.30
794.50	229.23
794.82	229.23
795.14	229.17
795.47	229.18
795.79	229.13
796.11	229.07
796.43	229.01
796.75	228.97
797.07	228.94
797.39	228.86
797.71	228.77
798.04	228.76
798.36	228.73
798.68	228.68
799.00	228.64
799.32	228.55
799.64	228.52
799.96	228.52
800.28	228.48
800.60	228.44
800.92	228.42
801.24	228.36
801.56	228.33
801.89	228.28
802.21	228.25
802.53	228.21
802.85	228.20
803.17	228.21
803.49	228.15
803.81	228.10
804.13	228.08
804.45	228.03
804.77	227.99
805.09	228.00
805.41	227.98
805.73	227.94
806.05	227.90
806.37	227.83
806.69	227.81
807.01	227.78
807.33	227.80
807.65	227.75
807.97	227.79
808.28	227.71
808.60	227.67
808.92	227.66
809.24	227.66
809.56	227.61
809.88	227.54
810.20	227.55
810.52	227.57
810.84	227.51
811.16	227.47
811.48	227.44
811.80	227.45
812.12	227.40
812.43	227.42
812.75	227.40
813.07	227.40
813.39	227.35
813.71	227.33
814.03	227.29
814.35	227.28
814.67	227.21
814.98	227.24
815.30	227.22
815.62	227.15
815.94	227.09
816.26	227.12
816.58	227.09
816.89	227.07
817.21	227.02
817.53	227.07
817.85	227.07
818.17	227.05
818.48	226.98
818.80	227.00
819.12	226.98
819.44	226.95
819.76	226.96
820.07	226.97
820.39	226.91
820.71	226.90
821.03	226.86
821.34	226.83
821.66	226.81
821.98	226.79
822.30	226.80
822.61	226.88
822.93	226.85
823.25	226.84
823.57	226.80
823.88	226.80
824.20	226.77
824.52	226.76
824.83	226.74
825.15	226.74
825.47	226.72
825.79	226.75
826.10	226.73
826.42	226.71
826.74	226.68
827.05	226.70
827.37	226.71
827.69	226.71
828.00	226.73
828.32	226.70
828.64	226.70
828.95	226.75
829.27	226.66
829.58	226.61
829.90	226.60
830.22	226.68
830.53	226.62
830.85	226.59
831.17	226.56
831.48	226.55
831.80	226.50
832.11	226.47
832.43	226.44
832.75	226.43
833.06	226.44
833.38	226.40
833.69	226.38
834.01	226.38
834.32	226.36
834.64	226.32
834.96	226.32
835.27	226.32
835.59	226.27
835.90	226.25
836.22	226.25
836.53	226.25
836.85	226.16
837.16	226.25
837.48	226.22
837.79	226.21
838.11	226.20
838.42	226.22
838.74	226.21
839.05	226.15
839.37	226.12
839.68	226.06
840.00	226.05
840.31	226.06
840.63	226.00
840.94	225.97
841.26	225.98
841.57	225.95
841.88	225.97
842.20	225.94
842.51	225.91
842.83	225.89
843.14	225.91
843.46	225.91
843.77	225.87
844.08	225.88
844.40	225.87
844.71	225.87
845.03	225.84
845.34	225.83
845.65	225.83
845.97	225.85
846.28	225.84
846.60	225.85
846.91	225.80
847.22	225.80
847.54	225.83
847.85	225.82
848.16	225.82
848.48	225.78
848.79	225.81
849.10	225.84
849.42	225.87
849.73	225.81
850.04	225.80
850.36	225.76
850.67	225.78
850.98	225.79
851.30	225.82
851.61	225.81
851.92	225.81
852.23	225.86
852.55	225.86
852.86	225.86
853.17	225.87
853.49	225.92
853.80	225.96
854.11	225.97
854.42	225.98
854.74	226.00
855.05	225.98
855.36	225.94
855.67	225.94
855.99	225.93
856.30	226.05
856.61	226.03
856.92	226.04
857.23	226.02
857.55	226.01
857.86	225.96
858.17	226.03
858.48	226.00
858.79	225.96
859.11	225.97
859.42	225.99
859.73	225.99
860.04	225.95
860.35	225.91
860.66	225.85
860.98	225.86
861.29	225.86
861.60	225.88
861.91	225.89
862.22	225.89
862.53	225.84
862.84	225.73
863.16	225.80
863.47	225.78
863.78	225.80
864.09	225.81
864.40	225.90
864.71	225.87
865.02	225.89
865.33	225.93
865.64	225.92
865.95	225.92
866.27	225.97
866.58	226.00
866.89	226.02
867.20	226.06
867.51	226.05
867.82	226.00
868.13	226.02
868.44	226.01
868.75	226.04
869.06	226.07
869.37	226.08
869.68	226.06
869.99	226.05
870.30	226.03
870.61	226.00
870.92	225.95
871.23	225.94
871.54	225.98
871.85	225.98
872.16	225.97
872.47	225.97
872.78	225.91
873.09	225.92
873.40	225.89
873.71	225.90
874.02	225.90
874.33	225.93
874.64	225.91
874.95	225.90
875.26	225.85
875.56	225.85
875.87	225.84
876.18	225.82
876.49	225.92
876.80	225.91
877.11	225.90
877.42	225.90
877.73	225.90
878.04	225.84
878.35	225.83
878.66	225.84
878.96	225.82
879.27	225.78
879.58	225.75
879.89	225.75
880.20	225.78
880.51	225.76
880.82	225.76
881.12	225.75
881.43	225.73
881.74	225.75
882.05	225.72
882.36	225.71
882.67	225.71
882.97	225.60
883.28	225.61
883.59	225.61
883.90	225.63
884.21	225.63
884.51	225.60
884.82	225.57
885.13	225.55
885.44	225.54
885.74	225.54
886.05	225.55
886.36	225.53
886.67	225.48
886.98	225.53
887.28	225.53
887.59	225.53
887.90	225.56
888.20	225.53
888.51	225.57
888.82	225.53
889.13	225.57
889.43	225.66
889.74	225.64
890.05	225.64
890.35	225.59
890.66	225.58
890.97	225.59
891.28	225.61
891.58	225.62
891.89	225.62
892.20	225.62
892.50	225.61
892.81	225.64
893.12	225.65
893.42	225.62
893.73	225.63
894.04	225.64
894.34	225.65
894.65	225.66
894.95	225.63
895.26	225.68
895.57	225.70
895.87	225.61
896.18	225.61
896.48	225.62
896.79	225.63
897.10	225.66
897.40	225.67
897.71	225.67
898.01	225.69
898.32	225.73
898.63	225.76
898.93	225.75
899.24	225.76
899.54	225.75
899.85	225.74
900.15	225.71
900.46	225.71
900.76	225.71
901.07	225.70
901.38	225.71
901.68	225.72
901.99	225.69
902.29	225.69
902.60	225.69
902.90	225.73
903.21	225.76
903.51	225.76
903.82	225.77
904.12	225.78
904.43	225.79
904.73	225.75
905.03	225.76
905.34	225.89
905.64	225.87
905.95	225.87
906.25	225.89
906.56	225.92
906.86	225.91
907.17	225.91
907.47	225.95
907.77	225.95
908.08	225.91
908.38	225.91
908.69	225.90
908.99	225.92
909.30	225.88
909.60	225.87
909.90	225.88
910.21	225.85
910.51	225.84
910.81	225.81
911.12	225.86
911.42	225.84
911.73	225.71
912.03	225.72
912.33	225.73
912.64	225.70
912.94	225.65
913.24	225.68
913.55	225.63
913.85	225.61
914.15	225.62
914.46	225.60
914.76	225.56
915.06	225.55
915.37	225.52
915.67	225.51
915.97	225.51
916.27	225.46
916.58	225.46
916.88	225.44
917.18	225.42
917.49	225.43
917.79	225.40
918.09	225.43
918.39	225.47
918.70	225.41
919.00	225.39
919.30	225.44
919.60	225.38
919.91	225.40
920.21	225.36
920.51	225.35
920.81	225.36
921.12	225.38
921.42	225.38
921.72	225.38
922.02	225.36
922.32	225.32
922.63	225.30
922.93	225.35
923.23	225.34
923.53	225.32
923.83	225.26
924.13	225.29
924.44	225.27
924.74	225.24
925.04	225.29
925.34	225.29
925.64	225.25
925.94	225.27
926.24	225.33
926.55	225.35
926.85	225.34
927.15	225.34
927.45	225.32
927.75	225.30
928.05	225.31
928.35	225.34
928.65	225.39
928.95	225.44
929.26	225.41
929.56	225.45
929.86	225.49
930.16	225.48
930.46	225.46
930.76	225.49
931.06	225.46
931.36	225.45
931.66	225.49
931.96	225.52
932.26	225.54
932.56	225.49
932.86	225.52
933.16	225.54
933.46	225.55
933.76	225.58
934.06	225.64
934.36	225.70
934.66	225.69
934.96	225.68
935.26	225.69
935.56	225.70
935.86	225.68
936.16	225.70
936.46	225.71
936.76	225.73
937.06	225.70
937.36	225.72
937.66	225.71
937.96	225.69
938.26	225.67
938.56	225.64
938.86	225.63
939.16	225.63
939.46	225.63
939.76	225.64
940.06	225.64
940.35	225.61
940.65	225.56
940.95	225.59
941.25	225.55
941.55	225.55
941.85	225.57
942.15	225.58
942.45	225.57
942.75	225.57
943.04	225.56
943.34	225.61
943.64	225.61
943.94	225.58
944.24	225.60
944.54	225.60
944.84	225.61
945.13	225.60
945.43	225.59
945.73	225.60
946.03	225.55
946.33	225.51
946.62	225.49
946.92	225.48
947.22	225.48
947.52	225.47
947.82	225.45
948.11	225.43
948.41	225.43
948.71	225.39
949.01	225.40
949.31	225.40
949.60	225.34
949.90	225.33
950.20	225.30
950.50	225.27
950.79	225.24
951.09	225.23
951.39	225.21
951.69	225.17
951.98	225.16
952.28	225.19
952.58	225.16
952.87	225.15
953.17	225.17
953.47	225.14
953.76	225.16
954.06	225.15
954.36	225.10
954.66	225.08
954.95	225.09
955.25	225.07
955.55	225.05
955.84	225.05
956.14	225.04
956.44	225.08
956.73	225.06
957.03	225.07
957.32	225.08
957.62	225.06
957.92	225.09
958.21	225.07
958.51	225.16
958.81	225.19
959.10	225.20
959.40	225.20
959.69	225.22
959.99	225.21
960.29	225.22
960.58	225.21
960.88	225.23
961.17	225.20
961.47	225.23
961.76	225.21
962.06	225.24
962.36	225.24
962.65	225.21
962.95	225.23
963.24	225.23
963.54	225.24
963.83	225.29
964.13	225.28
964.42	225.25
964.72	225.17
965.01	225.16
965.31	225.17
965.60	225.15
965.90	225.20
966.19	225.18
966.49	225.18
966.78	225.18
967.08	225.18
967.37	225.21
967.67	225.18
967.96	225.22
968.26	225.22
968.55	225.24
968.85	225.26
969.14	225.28
969.43	225.30
969.73	225.29
970.02	225.27
970.32	225.27
970.61	225.31
970.91	225.31
971.20	225.34
971.49	225.32
971.79	225.36
972.08	225.28
972.38	225.32
972.67	225.34
972.96	225.37
973.26	225.38
973.55	225.41
973.85	225.44
974.14	225.41
974.43	225.43
974.73	225.41
975.02	225.41
975.31	225.38
975.61	225.35
975.90	225.34
976.19	225.35
976.49	225.36
976.78	225.34
977.07	225.32
977.37	225.31
977.66	225.32
977.95	225.30
978.24	225.32
978.54	225.31
978.83	225.29
979.12	225.30
979.42	225.27
979.71	225.25
980.00	225.24
980.29	225.26
980.59	225.23
980.88	225.25
981.17	225.26
981.46	225.30
981.76	225.31
982.05	225.35
982.34	225.34
982.63	225.36
982.93	225.37
983.22	225.42
983.51	225.43
983.80	225.45
984.09	225.45
984.39	225.46
984.68	225.48
984.97	225.47
985.26	225.46
985.55	225.46
985.85	225.45
986.14	225.45
986.43	225.46
986.72	225.46
987.01	225.41
987.30	225.39
987.59	225.35
987.89	225.35
988.18	225.30
988.47	225.29
988.76	225.25
989.05	225.23
989.34	225.20
989.63	225.23
989.92	225.20
990.22	225.16
990.51	225.13
990.80	225.11
991.09	225.13
991.38	225.12
991.67	225.14
991.96	225.10
992.25	225.08
992.54	225.02
992.83	225.00
993.12	225.03
993.41	225.06
993.70	225.12
993.99	225.13
994.28	225.17
994.58	225.18
994.87	225.18
995.16	225.19
995.45	225.18
995.74	225.15
996.03	225.15
996.32	225.19
996.61	225.23
996.90	225.24
997.19	225.22
997.48	225.22
997.77	225.18
998.06	225.22
998.34	225.20
998.63	225.20
998.92	225.22
999.21	225.21
999.50	225.22
999.79	225.18
1000.08	225.18
1000.37	225.17
1000.66	225.18
1000.95	225.22
1001.24	225.23
1001.53	225.24
1001.82	225.23
1002.11	225.22
1002.40	225.25
1002.68	225.26
1002.97	225.30
1003.26	225.28
1003.55	225.26
1003.84	225.29
1004.13	225.32
1004.42	225.36
1004.71	225.39
1004.99	225.40
1005.28	225.43
1005.57	225.41
1005.86	225.41
1006.15	225.40
1006.44	225.41
1006.72	225.44
1007.01	225.41
1007.30	225.41
1007.59	225.40
1007.88	225.38
1008.17	225.41
1008.45	225.37
1008.74	225.33
1009.03	225.27
1009.32	225.30
1009.60	225.32
1009.89	225.34
1010.18	225.29
1010.47	225.30
1010.76	225.31
1011.04	225.30
1011.33	225.33
1011.62	225.31
1011.91	225.33
1012.19	225.32
1012.48	225.31
1012.77	225.31
1013.05	225.37
1013.34	225.38
1013.63	225.36
1013.92	225.37
1014.20	225.37
1014.49	225.40
1014.78	225.40
1015.06	225.38
1015.35	225.36
1015.64	225.35
1015.92	225.35
1016.21	225.35
1016.50	225.31
1016.78	225.27
1017.07	225.25
1017.36	225.25
1017.64	225.22
1017.93	225.17
1018.22	225.18
1018.50	225.17
1018.79	225.11
1019.08	225.07
1019.36	225.06
1019.65	225.07
1019.93	225.09
1020.22	225.09
1020.51	225.12
1020.79	225.13
1021.08	225.23
1021.36	225.07
1021.65	224.70
1021.94	225.39
1022.22	225.10
1022.51	225.04
1022.79	225.64
1023.08	225.32
1023.36	226.39
1023.65	225.20
>>>>>End Processed Spectral Data<<<<<
