SpectraSuite Data File
++++++++++++++++++++++++++++++++++++
Date: Tue Apr 02 18:46:41 EDT 2013
User: group
Dark Spectrum Present: No
Reference Spectrum Present: No
Number of Sampled Component Spectra: 1
Spectrometers: USB2E7196
Integration Time (usec): 580000 (USB2E7196)
Spectra Averaged: 2 (USB2E7196)
Boxcar Smoothing: 10 (USB2E7196)
Correct for Electrical Dark: No (USB2E7196)
Strobe/Lamp Enabled: No (USB2E7196)
Correct for Detector Non-linearity: No (USB2E7196)
Correct for Stray Light: No (USB2E7196)
Number of Pixels in Processed Spectrum: 2048
>>>>>Begin Processed Spectral Data<<<<<
339.09	0.00
339.48	190.50
339.86	194.50
340.24	194.50
340.63	199.00
341.01	235.00
341.39	200.50
341.78	203.50
342.16	210.50
342.54	206.00
342.93	197.52
343.31	207.19
343.69	207.93
344.07	208.67
344.46	209.62
344.84	210.10
345.22	208.69
345.60	209.10
345.99	209.40
346.37	209.24
346.75	209.38
347.13	209.36
347.52	209.43
347.90	210.02
348.28	209.90
348.66	210.43
349.05	209.38
349.43	209.93
349.81	210.29
350.19	210.43
350.57	211.12
350.96	211.36
351.34	211.90
351.72	211.90
352.10	211.76
352.48	211.43
352.87	211.31
353.25	211.43
353.63	211.38
354.01	211.21
354.39	211.45
354.77	211.57
355.15	212.36
355.54	212.31
355.92	211.83
356.30	211.83
356.68	213.00
357.06	213.33
357.44	212.98
357.82	212.79
358.20	213.86
358.58	213.55
358.97	213.64
359.35	213.88
359.73	214.29
360.11	214.31
360.49	214.40
360.87	214.55
361.25	214.76
361.63	215.55
362.01	215.79
362.39	215.69
362.77	215.76
363.15	215.55
363.53	215.45
363.91	215.43
364.29	215.48
364.67	213.45
365.05	213.57
365.43	213.86
365.81	214.00
366.19	213.98
366.57	214.62
366.95	214.57
367.33	214.19
367.71	214.19
368.09	214.62
368.47	214.64
368.85	214.71
369.23	215.07
369.61	214.12
369.99	214.76
370.37	214.93
370.75	215.95
371.13	215.31
371.51	215.05
371.89	215.26
372.27	215.21
372.65	215.31
373.03	215.24
373.41	215.10
373.78	215.07
374.16	213.88
374.54	213.60
374.92	213.36
375.30	213.31
375.68	213.10
376.06	213.17
376.44	212.95
376.82	212.98
377.19	212.88
377.57	213.02
377.95	212.50
378.33	212.21
378.71	210.90
379.09	211.40
379.47	211.90
379.84	211.69
380.22	211.50
380.60	211.31
380.98	211.14
381.36	211.19
381.73	210.95
382.11	211.43
382.49	211.38
382.87	211.12
383.25	211.07
383.62	213.45
384.00	213.19
384.38	213.60
384.76	214.05
385.13	214.86
385.51	215.02
385.89	214.64
386.27	215.10
386.64	215.52
387.02	215.52
387.40	215.38
387.78	215.38
388.15	215.86
388.53	215.81
388.91	215.79
389.29	215.67
389.66	215.76
390.04	215.40
390.42	215.74
390.79	216.14
391.17	216.29
391.55	214.10
391.92	213.88
392.30	213.95
392.68	213.48
393.05	213.38
393.43	213.29
393.81	213.50
394.18	213.05
394.56	212.86
394.94	213.02
395.31	212.71
395.69	213.60
396.06	213.31
396.44	213.62
396.82	213.52
397.19	214.38
397.57	214.36
397.95	214.81
398.32	214.12
398.70	214.50
399.07	214.86
399.45	214.60
399.82	214.88
400.20	214.71
400.58	214.64
400.95	213.76
401.33	214.21
401.70	215.83
402.08	216.21
402.45	216.52
402.83	217.10
403.20	217.43
403.58	217.17
403.95	218.07
404.33	218.29
404.71	218.60
405.08	220.00
405.46	220.48
405.83	220.74
406.21	221.19
406.58	221.26
406.96	221.71
407.33	222.55
407.70	223.26
408.08	225.31
408.45	226.26
408.83	227.33
409.20	227.88
409.58	227.48
409.95	228.31
410.33	229.24
410.70	229.43
411.08	230.76
411.45	231.83
411.82	232.55
412.20	234.14
412.57	236.52
412.95	236.14
413.32	237.76
413.69	239.14
414.07	240.81
414.44	242.88
414.82	244.93
415.19	247.17
415.56	249.33
415.94	250.43
416.31	253.10
416.68	256.12
417.06	259.40
417.43	262.74
417.81	266.36
418.18	270.07
418.55	273.95
418.93	277.67
419.30	281.81
419.67	286.26
420.04	290.52
420.42	295.26
420.79	302.31
421.16	308.02
421.54	314.74
421.91	320.60
422.28	326.24
422.66	332.43
423.03	340.55
423.40	347.57
423.77	354.83
424.15	362.05
424.52	369.17
424.89	377.62
425.26	384.98
425.64	392.60
426.01	400.64
426.38	409.19
426.75	418.79
427.13	428.00
427.50	437.33
427.87	447.62
428.24	457.07
428.61	465.26
428.99	476.83
429.36	487.21
429.73	498.90
430.10	510.48
430.47	522.40
430.85	533.05
431.22	545.64
431.59	560.33
431.96	573.14
432.33	587.74
432.70	601.19
433.08	617.31
433.45	632.36
433.82	647.79
434.19	664.50
434.56	680.93
434.93	696.24
435.30	712.05
435.68	728.95
436.05	746.05
436.42	762.88
436.79	777.81
437.16	795.05
437.53	812.86
437.90	831.21
438.27	848.76
438.64	866.60
439.01	883.02
439.38	896.50
439.75	910.98
440.13	927.14
440.50	942.71
440.87	955.88
441.24	969.74
441.61	983.88
441.98	994.81
442.35	1006.79
442.72	1019.88
443.09	1033.17
443.46	1040.98
443.83	1047.00
444.20	1052.60
444.57	1058.67
444.94	1062.12
445.31	1065.55
445.68	1070.48
446.05	1071.81
446.42	1070.60
446.79	1070.19
447.16	1068.67
447.53	1068.21
447.90	1062.36
448.27	1055.86
448.64	1047.19
449.01	1040.45
449.37	1029.14
449.74	1018.07
450.11	1007.29
450.48	992.93
450.85	977.24
451.22	964.79
451.59	952.48
451.96	940.33
452.33	924.40
452.70	910.69
453.07	893.40
453.43	873.95
453.80	857.36
454.17	841.29
454.54	825.10
454.91	808.76
455.28	792.24
455.65	777.26
456.02	766.07
456.38	753.31
456.75	738.12
457.12	725.07
457.49	712.67
457.86	698.55
458.23	688.21
458.59	676.69
458.96	664.90
459.33	654.24
459.70	643.60
460.07	635.90
460.43	625.60
460.80	617.12
461.17	610.00
461.54	601.98
461.91	594.02
462.27	586.02
462.64	579.10
463.01	571.74
463.38	565.07
463.74	554.43
464.11	547.88
464.48	541.74
464.85	535.79
465.21	531.10
465.58	526.12
465.95	520.17
466.32	515.50
466.68	510.33
467.05	505.19
467.42	499.90
467.78	494.81
468.15	489.83
468.52	486.19
468.88	480.50
469.25	476.00
469.62	472.86
469.98	468.88
470.35	465.36
470.72	461.57
471.08	456.90
471.45	454.00
471.82	450.79
472.18	447.55
472.55	445.38
472.92	442.26
473.28	438.98
473.65	436.00
474.02	433.33
474.38	431.33
474.75	429.55
475.11	427.67
475.48	425.90
475.85	424.57
476.21	422.79
476.58	421.83
476.94	420.43
477.31	418.95
477.67	418.05
478.04	417.19
478.41	416.90
478.77	418.50
479.14	417.71
479.50	417.48
479.87	417.02
480.23	415.98
480.60	415.64
480.96	415.57
481.33	416.40
481.69	416.19
482.06	416.07
482.42	416.12
482.79	416.71
483.15	416.90
483.52	417.64
483.88	418.00
484.25	418.60
484.61	419.86
484.98	420.62
485.34	422.48
485.71	423.57
486.07	424.76
486.44	424.31
486.80	425.74
487.17	427.17
487.53	429.95
487.90	432.71
488.26	435.57
488.62	438.62
488.99	440.17
489.35	443.12
489.72	445.95
490.08	448.48
490.44	450.76
490.81	454.33
491.17	457.52
491.54	461.60
491.90	465.29
492.26	468.88
492.63	472.57
492.99	475.79
493.36	480.12
493.72	484.74
494.08	488.79
494.45	494.14
494.81	499.29
495.17	503.76
495.54	508.71
495.90	512.86
496.26	517.55
496.63	523.17
496.99	528.21
497.35	533.95
497.72	539.88
498.08	546.31
498.44	552.14
498.80	558.64
499.17	564.71
499.53	570.67
499.89	577.50
500.26	584.00
500.62	590.38
500.98	597.57
501.34	603.95
501.71	611.64
502.07	618.14
502.43	625.10
502.79	632.26
503.16	639.14
503.52	647.14
503.88	654.05
504.24	661.38
504.60	669.05
504.97	676.64
505.33	684.02
505.69	692.55
506.05	700.02
506.41	707.55
506.78	714.88
507.14	722.33
507.50	729.57
507.86	737.71
508.22	746.52
508.59	753.76
508.95	761.98
509.31	770.14
509.67	777.71
510.03	784.86
510.39	791.88
510.75	799.81
511.12	807.29
511.48	815.40
511.84	823.12
512.20	830.81
512.56	838.43
512.92	846.55
513.28	853.36
513.64	861.24
514.00	868.79
514.37	876.12
514.73	883.64
515.09	891.33
515.45	898.19
515.81	904.38
516.17	911.57
516.53	917.62
516.89	923.50
517.25	930.55
517.61	938.29
517.97	945.19
518.33	951.81
518.69	958.12
519.05	965.05
519.41	971.24
519.77	978.19
520.13	984.36
520.49	989.57
520.85	995.24
521.21	1001.69
521.57	1007.52
521.93	1012.67
522.29	1018.76
522.65	1023.12
523.01	1028.83
523.37	1034.24
523.73	1039.21
524.09	1044.64
524.45	1049.79
524.81	1054.64
525.17	1059.07
525.53	1063.93
525.89	1068.21
526.25	1073.14
526.61	1076.60
526.97	1080.50
527.33	1085.26
527.68	1091.12
528.04	1095.26
528.40	1099.21
528.76	1102.29
529.12	1106.26
529.48	1111.02
529.84	1114.60
530.20	1119.12
530.56	1123.29
530.91	1127.21
531.27	1131.79
531.63	1136.76
531.99	1140.26
532.35	1143.86
532.71	1147.50
533.07	1151.48
533.42	1158.00
533.78	1162.24
534.14	1167.05
534.50	1171.50
534.86	1174.90
535.21	1177.21
535.57	1181.74
535.93	1185.83
536.29	1190.71
536.65	1194.48
537.00	1197.76
537.36	1201.17
537.72	1204.90
538.08	1208.60
538.44	1212.64
538.79	1216.19
539.15	1218.36
539.51	1222.36
539.87	1225.81
540.22	1230.67
540.58	1234.33
540.94	1235.64
541.29	1238.60
541.65	1240.36
542.01	1243.76
542.37	1245.88
542.72	1248.55
543.08	1250.45
543.44	1254.17
543.79	1255.40
544.15	1258.55
544.51	1261.71
544.87	1265.14
545.22	1268.36
545.58	1270.48
545.94	1272.24
546.29	1274.05
546.65	1277.10
547.01	1279.52
547.36	1281.98
547.72	1282.90
548.07	1285.36
548.43	1287.36
548.79	1289.12
549.14	1291.69
549.50	1293.83
549.86	1295.76
550.21	1298.05
550.57	1302.10
550.92	1303.74
551.28	1307.24
551.64	1308.79
551.99	1311.71
552.35	1313.90
552.70	1316.19
553.06	1319.31
553.41	1322.07
553.77	1326.81
554.13	1330.02
554.48	1334.36
554.84	1338.95
555.19	1342.71
555.55	1347.24
555.90	1350.62
556.26	1354.76
556.61	1358.64
556.97	1361.93
557.32	1366.62
557.68	1370.64
558.03	1374.02
558.39	1376.90
558.74	1381.07
559.10	1385.12
559.45	1388.26
559.81	1392.81
560.16	1397.12
560.52	1400.69
560.87	1406.17
561.23	1409.07
561.58	1415.10
561.94	1417.95
562.29	1421.50
562.64	1426.19
563.00	1429.79
563.35	1434.67
563.71	1439.05
564.06	1443.67
564.42	1448.88
564.77	1454.19
565.12	1459.86
565.48	1466.57
565.83	1472.98
566.19	1477.64
566.54	1483.33
566.89	1489.45
567.25	1495.24
567.60	1501.76
567.96	1509.90
568.31	1515.83
568.66	1522.74
569.02	1526.48
569.37	1532.21
569.72	1537.67
570.08	1542.48
570.43	1547.50
570.78	1553.31
571.14	1558.81
571.49	1564.52
571.84	1569.79
572.20	1575.26
572.55	1579.38
572.90	1581.67
573.26	1586.07
573.61	1590.67
573.96	1595.19
574.31	1599.12
574.67	1602.81
575.02	1605.79
575.37	1608.14
575.72	1611.29
576.08	1615.05
576.43	1618.38
576.78	1622.02
577.13	1625.19
577.49	1629.24
577.84	1633.29
578.19	1637.14
578.54	1641.02
578.90	1644.95
579.25	1648.40
579.60	1650.90
579.95	1654.38
580.30	1658.98
580.66	1663.83
581.01	1667.79
581.36	1671.67
581.71	1675.48
582.06	1681.10
582.42	1685.50
582.77	1688.26
583.12	1691.38
583.47	1693.79
583.82	1697.36
584.17	1700.76
584.53	1705.24
584.88	1708.74
585.23	1712.45
585.58	1714.36
585.93	1716.93
586.28	1719.81
586.63	1723.14
586.98	1726.07
587.34	1730.17
587.69	1731.83
588.04	1734.21
588.39	1736.43
588.74	1738.02
589.09	1740.45
589.44	1740.67
589.79	1741.90
590.14	1744.43
590.49	1746.17
590.84	1747.43
591.19	1749.86
591.54	1752.21
591.89	1753.40
592.25	1756.67
592.60	1757.19
592.95	1759.45
593.30	1762.29
593.65	1763.62
594.00	1763.67
594.35	1770.74
594.70	1770.98
595.05	1773.50
595.40	1774.83
595.75	1776.29
596.10	1778.26
596.45	1779.98
596.80	1780.90
597.15	1783.19
597.50	1784.00
597.85	1786.21
598.19	1786.74
598.54	1786.98
598.89	1787.43
599.24	1788.83
599.59	1788.43
599.94	1789.67
600.29	1790.24
600.64	1789.76
600.99	1789.98
601.34	1791.62
601.69	1786.36
602.04	1786.07
602.39	1785.45
602.74	1784.83
603.08	1784.55
603.43	1785.55
603.78	1785.45
604.13	1785.81
604.48	1784.10
604.83	1784.86
605.18	1783.90
605.53	1785.19
605.87	1785.00
606.22	1784.31
606.57	1782.19
606.92	1780.38
607.27	1778.55
607.62	1777.90
607.96	1777.14
608.31	1777.12
608.66	1776.21
609.01	1774.86
609.36	1774.36
609.70	1773.88
610.05	1771.81
610.40	1769.95
610.75	1767.26
611.10	1765.14
611.44	1762.74
611.79	1760.71
612.14	1758.62
612.49	1755.95
612.83	1753.38
613.18	1750.40
613.53	1747.12
613.88	1744.60
614.22	1741.05
614.57	1737.60
614.92	1734.21
615.27	1730.45
615.61	1726.43
615.96	1722.21
616.31	1719.31
616.65	1717.07
617.00	1713.71
617.35	1711.52
617.70	1709.40
618.04	1705.31
618.39	1702.24
618.74	1699.64
619.08	1696.40
619.43	1692.33
619.78	1688.60
620.12	1684.48
620.47	1681.69
620.82	1677.90
621.16	1673.50
621.51	1672.07
621.85	1669.36
622.20	1665.38
622.55	1661.17
622.89	1657.88
623.24	1655.69
623.59	1651.81
623.93	1647.38
624.28	1642.86
624.62	1640.17
624.97	1637.40
625.32	1633.98
625.66	1629.69
626.01	1624.62
626.35	1621.17
626.70	1617.17
627.04	1614.17
627.39	1610.50
627.73	1607.00
628.08	1604.31
628.43	1601.55
628.77	1596.55
629.12	1592.79
629.46	1589.43
629.81	1585.88
630.15	1580.52
630.50	1575.62
630.84	1569.86
631.19	1564.64
631.53	1560.26
631.88	1552.95
632.22	1545.88
632.57	1541.88
632.91	1537.33
633.26	1533.43
633.60	1527.88
633.95	1522.81
634.29	1517.14
634.64	1512.62
634.98	1507.57
635.32	1503.00
635.67	1498.62
636.01	1494.50
636.36	1489.48
636.70	1484.76
637.05	1479.79
637.39	1476.38
637.73	1472.05
638.08	1469.48
638.42	1464.62
638.77	1461.12
639.11	1456.90
639.45	1452.86
639.80	1447.14
640.14	1441.55
640.49	1435.67
640.83	1431.10
641.17	1426.45
641.52	1422.10
641.86	1417.00
642.20	1412.98
642.55	1407.45
642.89	1401.33
643.23	1395.00
643.58	1390.67
643.92	1384.29
644.26	1379.19
644.61	1373.50
644.95	1367.62
645.29	1360.79
645.64	1356.29
645.98	1350.24
646.32	1346.10
646.66	1339.90
647.01	1334.40
647.35	1328.33
647.69	1323.43
648.04	1317.83
648.38	1312.14
648.72	1306.90
649.06	1300.98
649.41	1294.67
649.75	1288.79
650.09	1283.60
650.43	1278.50
650.78	1271.60
651.12	1266.07
651.46	1259.95
651.80	1253.38
652.14	1247.24
652.49	1242.50
652.83	1235.52
653.17	1228.12
653.51	1220.55
653.85	1214.95
654.20	1207.88
654.54	1202.19
654.88	1195.95
655.22	1190.71
655.56	1184.17
655.90	1176.86
656.25	1170.12
656.59	1163.67
656.93	1157.71
657.27	1152.07
657.61	1144.76
657.95	1139.60
658.29	1133.21
658.64	1128.10
658.98	1121.71
659.32	1114.74
659.66	1107.88
660.00	1101.71
660.34	1096.07
660.68	1090.52
661.02	1084.17
661.36	1079.10
661.70	1073.62
662.05	1068.14
662.39	1062.29
662.73	1056.79
663.07	1052.21
663.41	1046.93
663.75	1040.76
664.09	1035.05
664.43	1028.62
664.77	1024.07
665.11	1017.90
665.45	1012.86
665.79	1006.98
666.13	1002.19
666.47	997.24
666.81	991.31
667.15	986.81
667.49	982.29
667.83	977.17
668.17	971.86
668.51	966.29
668.85	960.40
669.19	955.05
669.53	948.83
669.87	943.57
670.21	937.45
670.55	931.69
670.89	926.90
671.23	921.48
671.57	916.45
671.91	910.79
672.25	905.36
672.58	900.36
672.92	894.52
673.26	888.95
673.60	884.21
673.94	879.43
674.28	874.19
674.62	869.38
674.96	864.21
675.30	859.31
675.64	854.36
675.97	850.19
676.31	844.83
676.65	839.76
676.99	835.48
677.33	830.26
677.67	825.69
678.01	820.36
678.34	815.50
678.68	810.93
679.02	805.76
679.36	800.64
679.70	795.38
680.04	790.88
680.37	785.98
680.71	780.48
681.05	775.69
681.39	770.36
681.73	765.31
682.06	760.88
682.40	756.52
682.74	752.26
683.08	747.79
683.42	742.40
683.75	738.10
684.09	732.31
684.43	728.05
684.77	723.00
685.10	717.98
685.44	713.19
685.78	707.86
686.12	703.40
686.45	698.60
686.79	694.02
687.13	689.38
687.46	684.74
687.80	680.55
688.14	676.02
688.48	671.83
688.81	667.05
689.15	662.45
689.49	657.38
689.82	652.36
690.16	646.57
690.50	642.71
690.83	637.86
691.17	633.45
691.51	628.90
691.84	624.38
692.18	620.02
692.52	615.74
692.85	612.29
693.19	608.88
693.52	604.29
693.86	599.26
694.20	594.88
694.53	590.93
694.87	586.69
695.21	582.02
695.54	577.50
695.88	572.50
696.21	567.86
696.55	563.62
696.88	559.74
697.22	556.21
697.56	552.57
697.89	548.67
698.23	545.17
698.56	540.90
698.90	537.67
699.23	533.98
699.57	530.40
699.90	526.24
700.24	521.98
700.58	518.74
700.91	515.98
701.25	514.21
701.58	511.57
701.92	508.52
702.25	505.33
702.59	502.26
702.92	499.43
703.26	496.45
703.59	493.76
703.93	492.74
704.26	489.81
704.60	486.83
704.93	483.48
705.26	480.19
705.60	478.02
705.93	474.95
706.27	472.52
706.60	469.74
706.94	467.60
707.27	464.31
707.61	461.67
707.94	458.83
708.27	454.52
708.61	450.83
708.94	447.64
709.28	445.71
709.61	442.55
709.94	440.00
710.28	436.93
710.61	434.21
710.95	429.48
711.28	428.21
711.61	425.52
711.95	423.88
712.28	421.14
712.61	418.00
712.95	416.21
713.28	414.31
713.61	411.83
713.95	408.86
714.28	407.00
714.61	404.52
714.95	402.21
715.28	399.36
715.61	396.93
715.95	394.83
716.28	391.76
716.61	390.05
716.95	387.76
717.28	386.02
717.61	383.55
717.94	381.52
718.28	378.05
718.61	375.81
718.94	373.33
719.27	371.40
719.61	369.33
719.94	366.95
720.27	364.14
720.60	361.74
720.94	359.76
721.27	357.81
721.60	356.19
721.93	354.29
722.27	353.74
722.60	352.50
722.93	351.00
723.26	349.74
723.59	348.24
723.93	346.62
724.26	344.81
724.59	343.21
724.92	341.81
725.25	340.81
725.59	339.26
725.92	337.86
726.25	336.38
726.58	335.43
726.91	333.86
727.24	332.95
727.57	331.64
727.91	330.07
728.24	328.79
728.57	327.50
728.90	326.50
729.23	324.21
729.56	323.95
729.89	322.74
730.22	321.40
730.55	319.62
730.89	318.64
731.22	317.69
731.55	316.57
731.88	315.48
732.21	314.17
732.54	312.90
732.87	311.98
733.20	310.83
733.53	309.48
733.86	308.40
734.19	306.69
734.52	305.86
734.85	306.07
735.18	304.52
735.51	304.21
735.84	303.12
736.17	302.81
736.50	300.31
736.83	301.40
737.16	300.50
737.49	300.07
737.82	299.21
738.15	298.12
738.48	297.21
738.81	296.29
739.14	294.98
739.47	293.83
739.80	292.74
740.13	292.38
740.46	291.43
740.79	290.45
741.12	290.00
741.45	288.64
741.78	286.55
742.11	286.38
742.44	284.90
742.77	284.21
743.10	282.86
743.43	282.07
743.75	279.14
744.08	280.95
744.41	279.64
744.74	278.71
745.07	277.86
745.40	277.29
745.73	277.26
746.06	276.64
746.39	276.38
746.71	275.36
747.04	274.02
747.37	273.21
747.70	272.86
748.03	272.26
748.36	272.43
748.68	271.90
749.01	270.50
749.34	269.93
749.67	269.38
750.00	269.00
750.33	270.24
750.65	269.74
750.98	266.33
751.31	265.90
751.64	265.24
751.97	265.81
752.29	265.10
752.62	263.29
752.95	262.62
753.28	261.71
753.60	261.02
753.93	261.07
754.26	260.86
754.59	259.76
754.91	258.74
755.24	257.76
755.57	257.14
755.90	256.60
756.22	255.95
756.55	254.90
756.88	254.31
757.20	252.00
757.53	250.88
757.86	250.50
758.19	250.07
758.51	249.60
758.84	247.90
759.17	247.31
759.49	247.21
759.82	247.67
760.15	247.21
760.47	246.79
760.80	245.83
761.13	245.43
761.45	244.93
761.78	244.45
762.11	244.05
762.43	243.45
762.76	243.17
763.08	242.81
763.41	242.71
763.74	242.62
764.06	242.36
764.39	242.21
764.71	241.98
765.04	241.45
765.37	241.19
765.69	240.71
766.02	240.48
766.34	240.10
766.67	239.17
767.00	239.43
767.32	240.24
767.65	241.05
767.97	240.76
768.30	240.57
768.62	240.19
768.95	239.60
769.27	239.45
769.60	239.60
769.92	238.95
770.25	238.43
770.57	237.38
770.90	237.24
771.22	236.67
771.55	236.24
771.87	236.29
772.20	235.86
772.52	237.74
772.85	239.98
773.17	239.40
773.50	239.02
773.82	238.40
774.15	237.14
774.47	235.71
774.80	235.24
775.12	235.05
775.45	234.93
775.77	235.02
776.09	234.90
776.42	234.52
776.74	235.00
777.07	234.76
777.39	234.98
777.72	234.33
778.04	234.45
778.36	234.10
778.69	233.71
779.01	233.45
779.33	231.38
779.66	228.62
779.98	228.64
780.31	228.26
780.63	228.86
780.95	229.17
781.28	229.40
781.60	229.14
781.92	228.64
782.25	228.21
782.57	227.90
782.89	227.36
783.22	227.10
783.54	226.45
783.86	226.26
784.19	225.86
784.51	226.50
784.83	226.21
785.16	226.14
785.48	226.21
785.80	226.05
786.12	225.88
786.45	225.81
786.77	225.60
787.09	225.60
787.42	224.69
787.74	224.45
788.06	223.98
788.38	223.79
788.71	223.86
789.03	224.07
789.35	224.31
789.67	224.26
789.99	224.14
790.32	223.71
790.64	223.98
790.96	225.88
791.28	224.95
791.61	224.71
791.93	224.81
792.25	224.33
792.57	225.76
792.89	225.33
793.21	225.43
793.54	225.21
793.86	224.90
794.18	225.00
794.50	224.48
794.82	224.29
795.14	224.38
795.47	224.69
795.79	224.79
796.11	224.10
796.43	223.86
796.75	223.83
797.07	223.88
797.39	223.62
797.71	221.62
798.04	221.86
798.36	221.95
798.68	221.64
799.00	221.88
799.32	220.67
799.64	220.95
799.96	220.74
800.28	221.07
800.60	220.86
800.92	220.95
801.24	220.88
801.56	221.10
801.89	221.05
802.21	220.88
802.53	220.55
802.85	221.07
803.17	222.12
803.49	221.57
803.81	221.45
804.13	221.43
804.45	221.29
804.77	221.21
805.09	221.26
805.41	221.31
805.73	220.95
806.05	220.45
806.37	220.21
806.69	220.07
807.01	219.83
807.33	220.12
807.65	219.38
807.97	220.36
808.28	220.12
808.60	219.98
808.92	219.86
809.24	221.02
809.56	220.60
809.88	219.60
810.20	219.74
810.52	220.12
810.84	219.62
811.16	219.36
811.48	219.36
811.80	219.76
812.12	219.52
812.43	219.88
812.75	220.07
813.07	219.81
813.39	220.00
813.71	219.86
814.03	219.55
814.35	219.62
814.67	218.62
814.98	218.38
815.30	218.12
815.62	217.69
815.94	216.21
816.26	216.36
816.58	216.19
816.89	216.33
817.21	215.83
817.53	216.07
817.85	216.17
818.17	215.90
818.48	215.19
818.80	215.43
819.12	214.83
819.44	214.45
819.76	214.14
820.07	213.98
820.39	213.93
820.71	214.10
821.03	213.95
821.34	213.79
821.66	214.05
821.98	214.67
822.30	214.52
822.61	215.67
822.93	215.48
823.25	215.52
823.57	215.36
823.88	215.64
824.20	215.50
824.52	215.86
824.83	215.90
825.15	215.48
825.47	215.50
825.79	215.76
826.10	215.71
826.42	215.71
826.74	216.00
827.05	215.74
827.37	215.76
827.69	215.64
828.00	216.02
828.32	215.93
828.64	215.36
828.95	216.50
829.27	216.05
829.58	215.88
829.90	216.07
830.22	216.38
830.53	215.98
830.85	215.71
831.17	215.14
831.48	215.02
831.80	215.48
832.11	215.36
832.43	215.07
832.75	215.12
833.06	216.31
833.38	215.52
833.69	215.52
834.01	215.48
834.32	215.45
834.64	215.07
834.96	215.10
835.27	215.07
835.59	214.33
835.90	213.88
836.22	214.05
836.53	213.52
836.85	213.07
837.16	215.21
837.48	215.43
837.79	216.12
838.11	216.29
838.42	216.19
838.74	216.36
839.05	216.19
839.37	216.00
839.68	214.83
840.00	214.74
840.31	214.95
840.63	214.76
840.94	214.55
841.26	214.55
841.57	214.45
841.88	214.55
842.20	214.31
842.51	214.05
842.83	213.86
843.14	215.62
843.46	215.69
843.77	214.33
844.08	214.05
844.40	213.64
844.71	213.40
845.03	213.36
845.34	213.10
845.65	213.12
845.97	213.21
846.28	213.29
846.60	213.33
846.91	212.93
847.22	213.02
847.54	213.69
847.85	213.38
848.16	213.29
848.48	213.02
848.79	213.71
849.10	213.88
849.42	214.05
849.73	212.29
850.04	212.24
850.36	211.45
850.67	211.90
850.98	211.64
851.30	211.83
851.61	211.57
851.92	211.60
852.23	212.24
852.55	212.31
852.86	212.33
853.17	212.71
853.49	213.29
853.80	213.55
854.11	213.62
854.42	214.19
854.74	213.90
855.05	214.02
855.36	213.07
855.67	213.33
855.99	213.38
856.30	215.93
856.61	215.90
856.92	216.05
857.23	216.05
857.55	215.93
857.86	215.69
858.17	215.95
858.48	215.50
858.79	215.17
859.11	215.36
859.42	215.38
859.73	215.07
860.04	214.95
860.35	214.36
860.66	213.60
860.98	213.38
861.29	213.55
861.60	213.45
861.91	214.05
862.22	213.57
862.53	213.17
862.84	210.67
863.16	211.17
863.47	210.90
863.78	210.76
864.09	210.81
864.40	211.17
864.71	211.43
865.02	211.81
865.33	211.45
865.64	211.24
865.95	211.14
866.27	212.64
866.58	212.36
866.89	212.50
867.20	212.62
867.51	212.21
867.82	212.14
868.13	212.74
868.44	212.14
868.75	212.67
869.06	212.93
869.37	213.19
869.68	212.40
869.99	212.76
870.30	212.74
870.61	213.12
870.92	212.79
871.23	212.31
871.54	212.36
871.85	212.81
872.16	212.98
872.47	212.71
872.78	211.43
873.09	211.76
873.40	211.79
873.71	211.74
874.02	212.12
874.33	212.12
874.64	211.62
874.95	211.95
875.26	211.48
875.56	211.24
875.87	211.07
876.18	211.00
876.49	212.95
876.80	212.98
877.11	212.55
877.42	212.69
877.73	212.79
878.04	212.60
878.35	212.69
878.66	212.62
878.96	212.62
879.27	212.50
879.58	212.10
879.89	211.90
880.20	212.86
880.51	212.67
880.82	212.60
881.12	212.76
881.43	212.36
881.74	212.26
882.05	212.38
882.36	212.71
882.67	213.10
882.97	211.05
883.28	210.88
883.59	210.83
883.90	210.90
884.21	211.12
884.51	211.07
884.82	210.52
885.13	210.45
885.44	210.43
885.74	210.45
886.05	210.67
886.36	210.90
886.67	209.98
886.98	211.05
887.28	211.43
887.59	211.21
887.90	211.48
888.20	211.33
888.51	211.71
888.82	211.21
889.13	211.31
889.43	212.83
889.74	212.48
890.05	212.48
890.35	212.36
890.66	212.24
890.97	212.29
891.28	212.33
891.58	212.36
891.89	212.62
892.20	212.14
892.50	212.00
892.81	211.69
893.12	211.74
893.42	210.60
893.73	210.69
894.04	210.83
894.34	210.81
894.65	211.00
894.95	210.81
895.26	211.10
895.57	212.02
895.87	210.26
896.18	210.81
896.48	210.93
896.79	210.90
897.10	211.33
897.40	211.26
897.71	211.79
898.01	211.67
898.32	211.93
898.63	212.36
898.93	212.52
899.24	212.67
899.54	212.64
899.85	212.81
900.15	212.71
900.46	212.67
900.76	213.19
901.07	213.17
901.38	212.98
901.68	213.26
901.99	212.21
902.29	212.45
902.60	212.31
902.90	212.29
903.21	212.14
903.51	211.81
903.82	212.07
904.12	211.90
904.43	212.12
904.73	212.14
905.03	212.36
905.34	214.24
905.64	214.05
905.95	213.88
906.25	213.71
906.56	213.55
906.86	213.71
907.17	213.24
907.47	213.12
907.77	213.07
908.08	212.36
908.38	212.40
908.69	212.55
908.99	213.02
909.30	213.24
909.60	213.36
909.90	213.36
910.21	213.05
910.51	212.81
910.81	212.98
911.12	212.79
911.42	212.69
911.73	210.76
912.03	211.12
912.33	211.60
912.64	211.64
912.94	211.48
913.24	211.05
913.55	211.02
913.85	211.17
914.15	211.52
914.46	212.05
914.76	211.88
915.06	211.71
915.37	211.12
915.67	210.86
915.97	210.83
916.27	210.29
916.58	210.50
916.88	210.21
917.18	209.81
917.49	211.40
917.79	211.05
918.09	211.26
918.39	211.67
918.70	211.62
919.00	211.79
919.30	212.76
919.60	212.83
919.91	212.57
920.21	212.67
920.51	212.43
920.81	211.95
921.12	212.45
921.42	212.24
921.72	212.48
922.02	212.50
922.32	212.74
922.63	212.95
922.93	213.95
923.23	214.29
923.53	214.00
923.83	212.48
924.13	212.93
924.44	212.88
924.74	213.21
925.04	213.67
925.34	213.79
925.64	213.05
925.94	213.19
926.24	214.24
926.55	213.83
926.85	213.95
927.15	214.40
927.45	214.31
927.75	214.50
928.05	214.52
928.35	214.62
928.65	215.05
928.95	215.29
929.26	214.33
929.56	214.71
929.86	215.17
930.16	215.10
930.46	214.83
930.76	214.79
931.06	213.81
931.36	213.36
931.66	213.67
931.96	213.79
932.26	213.71
932.56	213.02
932.86	213.33
933.16	213.14
933.46	213.00
933.76	212.67
934.06	213.07
934.36	213.76
934.66	213.55
934.96	213.38
935.26	213.50
935.56	213.88
935.86	213.33
936.16	213.31
936.46	213.07
936.76	212.90
937.06	212.83
937.36	213.02
937.66	212.90
937.96	212.40
938.26	212.10
938.56	212.17
938.86	212.21
939.16	212.67
939.46	213.10
939.76	213.10
940.06	213.10
940.35	212.40
940.65	211.40
940.95	211.81
941.25	211.12
941.55	210.93
941.85	210.71
942.15	211.33
942.45	211.79
942.75	211.93
943.04	212.19
943.34	212.60
943.64	212.40
943.94	212.24
944.24	212.50
944.54	212.64
944.84	212.52
945.13	212.24
945.43	211.98
945.73	211.86
946.03	211.83
946.33	211.88
946.62	211.98
946.92	212.17
947.22	212.05
947.52	212.45
947.82	212.79
948.11	212.71
948.41	212.14
948.71	211.69
949.01	211.95
949.31	211.74
949.60	211.45
949.90	211.74
950.20	211.64
950.50	211.62
950.79	211.40
951.09	211.69
951.39	211.88
951.69	211.69
951.98	211.98
952.28	212.10
952.58	212.12
952.87	212.05
953.17	212.40
953.47	212.40
953.76	212.31
954.06	211.95
954.36	211.50
954.66	211.36
954.95	211.88
955.25	211.95
955.55	212.29
955.84	212.07
956.14	212.31
956.44	212.43
956.73	211.93
957.03	212.07
957.32	212.10
957.62	211.71
957.92	212.26
958.21	211.98
958.51	214.10
958.81	214.21
959.10	214.52
959.40	214.62
959.69	214.62
959.99	214.60
960.29	214.71
960.58	214.71
960.88	215.60
961.17	215.24
961.47	215.19
961.76	214.90
962.06	215.07
962.36	214.83
962.65	215.21
962.95	215.55
963.24	215.55
963.54	215.57
963.83	216.12
964.13	215.64
964.42	215.24
964.72	213.50
965.01	213.62
965.31	213.52
965.60	212.93
965.90	214.14
966.19	214.02
966.49	213.98
966.78	213.98
967.08	213.69
967.37	213.64
967.67	213.36
967.96	213.76
968.26	213.74
968.55	214.05
968.85	213.60
969.14	213.43
969.43	213.31
969.73	212.98
970.02	212.64
970.32	212.55
970.61	212.50
970.91	211.90
971.20	211.71
971.49	211.60
971.79	212.02
972.08	210.50
972.38	210.60
972.67	210.36
972.96	210.71
973.26	210.48
973.55	211.33
973.85	211.29
974.14	211.10
974.43	211.21
974.73	210.81
975.02	210.69
975.31	210.74
975.61	210.60
975.90	210.48
976.19	210.48
976.49	210.79
976.78	211.05
977.07	211.00
977.37	210.98
977.66	211.17
977.95	210.74
978.24	210.76
978.54	210.98
978.83	211.02
979.12	210.69
979.42	210.57
979.71	209.83
980.00	209.83
980.29	209.86
980.59	209.45
980.88	209.95
981.17	210.07
981.46	210.21
981.76	210.19
982.05	210.86
982.34	210.88
982.63	210.88
982.93	210.71
983.22	211.19
983.51	211.26
983.80	211.48
984.09	211.74
984.39	211.79
984.68	211.64
984.97	211.74
985.26	211.71
985.55	211.90
985.85	211.52
986.14	211.86
986.43	212.17
986.72	212.00
987.01	211.31
987.30	211.14
987.59	210.95
987.89	211.10
988.18	210.31
988.47	210.10
988.76	209.86
989.05	209.86
989.34	209.76
989.63	210.21
989.92	209.90
990.22	209.69
990.51	209.62
990.80	209.40
991.09	209.43
991.38	209.62
991.67	209.31
991.96	209.10
992.25	209.00
992.54	208.48
992.83	208.74
993.12	208.86
993.41	209.33
993.70	210.05
993.99	210.60
994.28	211.02
994.58	211.45
994.87	211.17
995.16	211.05
995.45	210.88
995.74	210.21
996.03	210.38
996.32	210.76
996.61	211.19
996.90	211.24
997.19	211.21
997.48	211.12
997.77	211.02
998.06	211.14
998.34	211.02
998.63	211.05
998.92	211.12
999.21	211.17
999.50	211.12
999.79	210.40
1000.08	209.83
1000.37	210.02
1000.66	209.71
1000.95	210.24
1001.24	210.31
1001.53	210.48
1001.82	210.33
1002.11	209.93
1002.40	209.95
1002.68	210.45
1002.97	212.05
1003.26	211.83
1003.55	211.62
1003.84	211.76
1004.13	212.52
1004.42	212.52
1004.71	212.50
1004.99	212.48
1005.28	213.12
1005.57	212.86
1005.86	212.81
1006.15	213.05
1006.44	212.33
1006.72	212.36
1007.01	211.81
1007.30	211.93
1007.59	211.52
1007.88	211.62
1008.17	211.95
1008.45	211.52
1008.74	210.69
1009.03	209.52
1009.32	209.60
1009.60	209.71
1009.89	209.52
1010.18	208.74
1010.47	208.67
1010.76	208.67
1011.04	208.50
1011.33	208.45
1011.62	208.60
1011.91	208.81
1012.19	208.74
1012.48	209.17
1012.77	209.19
1013.05	210.33
1013.34	210.24
1013.63	210.38
1013.92	210.48
1014.20	210.14
1014.49	210.29
1014.78	210.31
1015.06	209.93
1015.35	209.90
1015.64	210.12
1015.92	210.62
1016.21	210.90
1016.50	210.88
1016.78	211.14
1017.07	211.33
1017.36	210.67
1017.64	210.55
1017.93	210.52
1018.22	210.67
1018.50	210.71
1018.79	210.76
1019.08	209.83
1019.36	209.98
1019.65	209.67
1019.93	210.07
1020.22	210.69
1020.51	212.02
1020.79	211.98
1021.08	213.00
1021.36	211.50
1021.65	210.00
1021.94	209.50
1022.22	210.50
1022.51	204.00
1022.79	218.00
1023.08	218.00
1023.36	239.00
1023.65	206.00
>>>>>End Processed Spectral Data<<<<<
