SpectraSuite Data File
++++++++++++++++++++++++++++++++++++
Date: Tue Apr 02 18:40:32 EDT 2013
User: group
Dark Spectrum Present: No
Reference Spectrum Present: No
Number of Sampled Component Spectra: 1
Spectrometers: USB2E7196
Integration Time (usec): 580000 (USB2E7196)
Spectra Averaged: 2 (USB2E7196)
Boxcar Smoothing: 10 (USB2E7196)
Correct for Electrical Dark: No (USB2E7196)
Strobe/Lamp Enabled: No (USB2E7196)
Correct for Detector Non-linearity: No (USB2E7196)
Correct for Stray Light: No (USB2E7196)
Number of Pixels in Processed Spectrum: 2048
>>>>>Begin Processed Spectral Data<<<<<
339.09	0.00
339.48	188.50
339.86	190.50
340.24	195.00
340.63	198.50
341.01	232.50
341.39	202.00
341.78	203.50
342.16	208.50
342.54	204.00
342.93	196.57
343.31	206.14
343.69	206.79
344.07	207.50
344.46	208.05
344.84	208.55
345.22	207.31
345.60	207.62
345.99	207.90
346.37	208.05
346.75	208.07
347.13	208.07
347.52	208.40
347.90	209.26
348.28	208.93
348.66	209.52
349.05	208.90
349.43	209.14
349.81	209.38
350.19	209.67
350.57	209.98
350.96	210.31
351.34	210.93
351.72	211.19
352.10	211.36
352.48	211.43
352.87	211.50
353.25	211.64
353.63	211.79
354.01	211.76
354.39	211.88
354.77	212.26
355.15	212.93
355.54	212.60
355.92	212.17
356.30	212.62
356.68	213.76
357.06	214.07
357.44	213.79
357.82	213.64
358.20	214.67
358.58	214.79
358.97	214.74
359.35	215.05
359.73	215.50
360.11	215.48
360.49	215.76
360.87	215.76
361.25	216.14
361.63	216.74
362.01	217.14
362.39	217.07
362.77	217.33
363.15	217.33
363.53	217.50
363.91	217.43
364.29	217.33
364.67	215.43
365.05	215.50
365.43	216.07
365.81	216.64
366.19	216.90
366.57	217.79
366.95	217.88
367.33	217.36
367.71	217.40
368.09	218.10
368.47	218.21
368.85	218.36
369.23	218.76
369.61	218.21
369.99	218.74
370.37	218.98
370.75	219.95
371.13	219.50
371.51	219.40
371.89	219.52
372.27	219.67
372.65	219.93
373.03	220.14
373.41	219.67
373.78	219.24
374.16	218.02
374.54	217.19
374.92	216.90
375.30	217.02
375.68	216.69
376.06	216.45
376.44	215.98
376.82	215.90
377.19	215.76
377.57	215.67
377.95	215.07
378.33	214.93
378.71	213.60
379.09	213.90
379.47	213.81
379.84	213.69
380.22	213.48
380.60	213.10
380.98	212.88
381.36	213.14
381.73	212.74
382.11	213.10
382.49	213.05
382.87	212.79
383.25	212.79
383.62	215.24
384.00	214.86
384.38	215.05
384.76	215.57
385.13	216.10
385.51	215.95
385.89	215.50
386.27	215.29
386.64	215.40
387.02	215.21
387.40	215.19
387.78	215.60
388.15	215.71
388.53	215.83
388.91	215.88
389.29	215.67
389.66	215.90
390.04	215.79
390.42	216.00
390.79	216.17
391.17	216.14
391.55	213.79
391.92	213.79
392.30	214.07
392.68	213.57
393.05	213.33
393.43	213.45
393.81	213.74
394.18	213.57
394.56	213.74
394.94	214.05
395.31	213.81
395.69	214.21
396.06	214.52
396.44	214.74
396.82	214.52
397.19	215.45
397.57	215.38
397.95	215.57
398.32	215.17
398.70	215.48
399.07	215.93
399.45	216.19
399.82	216.26
400.20	216.07
400.58	216.12
400.95	215.38
401.33	215.81
401.70	217.19
402.08	217.45
402.45	217.55
402.83	217.90
403.20	218.29
403.58	217.83
403.95	218.10
404.33	218.69
404.71	218.81
405.08	220.19
405.46	220.67
405.83	220.88
406.21	221.19
406.58	221.40
406.96	221.67
407.33	222.10
407.70	222.93
408.08	224.98
408.45	225.79
408.83	227.12
409.20	227.71
409.58	227.24
409.95	228.29
410.33	229.29
410.70	229.81
411.08	231.05
411.45	232.48
411.82	233.26
412.20	234.55
412.57	237.05
412.95	236.67
413.32	238.48
413.69	240.02
414.07	242.31
414.44	244.29
414.82	246.52
415.19	248.83
415.56	251.12
415.94	252.76
416.31	255.86
416.68	258.40
417.06	261.83
417.43	265.57
417.81	269.43
418.18	273.33
418.55	277.45
418.93	281.93
419.30	286.21
419.67	291.14
420.04	295.86
420.42	300.19
420.79	307.76
421.16	313.57
421.54	321.00
421.91	327.33
422.28	334.12
422.66	340.90
423.03	349.14
423.40	356.29
423.77	363.76
424.15	371.10
424.52	379.79
424.89	389.26
425.26	397.55
425.64	405.57
426.01	414.40
426.38	423.95
426.75	433.55
427.13	443.67
427.50	453.86
427.87	464.33
428.24	475.24
428.61	484.00
428.99	496.29
429.36	507.48
429.73	519.29
430.10	530.81
430.47	543.10
430.85	554.52
431.22	568.07
431.59	583.60
431.96	597.38
432.33	611.93
432.70	626.26
433.08	643.05
433.45	658.81
433.82	674.40
434.19	691.98
434.56	709.90
434.93	726.43
435.30	743.33
435.68	761.95
436.05	780.38
436.42	798.14
436.79	814.62
437.16	833.12
437.53	851.98
437.90	871.05
438.27	889.81
438.64	909.21
439.01	927.31
439.38	942.07
439.75	957.26
440.13	974.62
440.50	990.29
440.87	1004.33
441.24	1018.74
441.61	1034.83
441.98	1046.26
442.35	1059.12
442.72	1073.05
443.09	1086.71
443.46	1095.02
443.83	1100.55
444.20	1106.07
444.57	1112.95
444.94	1116.17
445.31	1119.95
445.68	1126.26
446.05	1127.79
446.42	1126.26
446.79	1124.88
447.16	1122.48
447.53	1121.55
447.90	1115.07
448.27	1108.69
448.64	1098.93
449.01	1092.17
449.37	1079.71
449.74	1068.50
450.11	1056.29
450.48	1040.52
450.85	1024.31
451.22	1010.93
451.59	998.19
451.96	985.88
452.33	968.88
452.70	953.24
453.07	934.74
453.43	913.81
453.80	896.38
454.17	879.86
454.54	862.95
454.91	846.02
455.28	829.02
455.65	813.48
456.02	800.93
456.38	787.38
456.75	771.52
457.12	758.07
457.49	744.29
457.86	729.45
458.23	718.67
458.59	705.71
458.96	692.90
459.33	681.36
459.70	669.45
460.07	660.69
460.43	650.64
460.80	642.02
461.17	634.64
461.54	626.02
461.91	617.14
462.27	608.67
462.64	601.36
463.01	593.90
463.38	586.33
463.74	575.45
464.11	568.62
464.48	561.74
464.85	555.24
465.21	550.71
465.58	545.14
465.95	537.83
466.32	532.64
466.68	527.26
467.05	522.29
467.42	517.36
467.78	511.62
468.15	506.10
468.52	502.00
468.88	495.48
469.25	490.48
469.62	487.21
469.98	483.26
470.35	479.69
470.72	475.33
471.08	470.88
471.45	467.76
471.82	465.14
472.18	461.64
472.55	458.90
472.92	454.67
473.28	451.26
473.65	448.74
474.02	446.50
474.38	443.81
474.75	441.52
475.11	439.31
475.48	437.60
475.85	436.07
476.21	434.36
476.58	433.31
476.94	432.26
477.31	430.40
477.67	428.88
478.04	427.67
478.41	427.00
478.77	428.33
479.14	427.12
479.50	426.36
479.87	426.57
480.23	426.05
480.60	425.81
480.96	425.83
481.33	426.55
481.69	426.29
482.06	426.90
482.42	427.45
482.79	427.86
483.15	428.10
483.52	429.24
483.88	429.40
484.25	429.98
484.61	430.81
484.98	431.50
485.34	433.71
485.71	434.83
486.07	436.31
486.44	435.98
486.80	437.74
487.17	439.24
487.53	441.43
487.90	443.52
488.26	446.45
488.62	449.26
488.99	451.05
489.35	454.12
489.72	456.50
490.08	459.10
490.44	461.81
490.81	465.33
491.17	468.14
491.54	471.74
491.90	475.71
492.26	479.43
492.63	483.76
492.99	487.05
493.36	491.79
493.72	496.62
494.08	501.62
494.45	506.81
494.81	512.17
495.17	516.76
495.54	521.93
495.90	527.07
496.26	532.48
496.63	538.45
496.99	543.98
497.35	550.31
497.72	556.43
498.08	563.14
498.44	568.81
498.80	576.24
499.17	582.48
499.53	589.14
499.89	596.19
500.26	603.48
500.62	610.60
500.98	618.02
501.34	625.07
501.71	632.52
502.07	640.02
502.43	647.31
502.79	655.00
503.16	662.88
503.52	670.93
503.88	678.14
504.24	686.00
504.60	693.57
504.97	701.33
505.33	709.57
505.69	718.62
506.05	727.69
506.41	735.38
506.78	744.36
507.14	752.67
507.50	761.19
507.86	769.71
508.22	778.24
508.59	785.79
508.95	794.90
509.31	804.19
509.67	812.02
510.03	820.50
510.39	829.26
510.75	837.52
511.12	845.10
511.48	853.57
511.84	861.98
512.20	870.43
512.56	878.88
512.92	887.00
513.28	894.69
513.64	902.26
514.00	910.38
514.37	917.93
514.73	925.95
515.09	933.40
515.45	940.83
515.81	948.45
516.17	956.02
516.53	962.67
516.89	968.88
517.25	976.50
517.61	983.93
517.97	990.64
518.33	998.02
518.69	1005.52
519.05	1012.71
519.41	1019.00
519.77	1027.57
520.13	1034.79
520.49	1041.45
520.85	1047.40
521.21	1055.10
521.57	1062.07
521.93	1068.26
522.29	1074.48
522.65	1080.69
523.01	1087.36
523.37	1093.43
523.73	1099.79
524.09	1105.33
524.45	1111.55
524.81	1117.21
525.17	1123.36
525.53	1128.79
525.89	1133.90
526.25	1138.95
526.61	1143.93
526.97	1149.40
527.33	1153.57
527.68	1160.43
528.04	1165.26
528.40	1170.57
528.76	1175.24
529.12	1179.36
529.48	1185.05
529.84	1189.98
530.20	1195.07
530.56	1200.07
530.91	1205.57
531.27	1210.60
531.63	1216.02
531.99	1220.02
532.35	1224.52
532.71	1228.81
533.07	1233.81
533.42	1241.48
533.78	1246.52
534.14	1251.83
534.50	1257.45
534.86	1262.45
535.21	1265.10
535.57	1270.43
535.93	1274.36
536.29	1279.69
536.65	1285.24
537.00	1288.69
537.36	1292.29
537.72	1296.81
538.08	1300.00
538.44	1303.17
538.79	1307.83
539.15	1310.79
539.51	1315.55
539.87	1320.29
540.22	1324.43
540.58	1328.29
540.94	1329.64
541.29	1333.79
541.65	1337.43
542.01	1340.81
542.37	1343.83
542.72	1346.76
543.08	1350.40
543.44	1355.21
543.79	1357.45
544.15	1360.29
544.51	1365.12
544.87	1369.88
545.22	1373.43
545.58	1377.29
545.94	1380.55
546.29	1383.55
546.65	1387.86
547.01	1391.00
547.36	1394.00
547.72	1397.79
548.07	1401.76
548.43	1405.24
548.79	1407.83
549.14	1410.43
549.50	1413.79
549.86	1417.31
550.21	1421.69
550.57	1424.52
550.92	1426.21
551.28	1428.98
551.64	1433.12
551.99	1437.07
552.35	1439.98
552.70	1443.76
553.06	1447.05
553.41	1450.88
553.77	1455.95
554.13	1460.81
554.48	1465.93
554.84	1471.36
555.19	1474.69
555.55	1480.38
555.90	1484.95
556.26	1490.21
556.61	1496.33
556.97	1499.98
557.32	1504.71
557.68	1508.31
558.03	1512.69
558.39	1518.45
558.74	1524.21
559.10	1527.62
559.45	1531.52
559.81	1536.60
560.16	1540.48
560.52	1546.14
560.87	1552.83
561.23	1556.52
561.58	1562.12
561.94	1565.83
562.29	1569.64
562.64	1575.67
563.00	1578.90
563.35	1583.33
563.71	1587.71
564.06	1592.21
564.42	1597.67
564.77	1603.02
565.12	1610.24
565.48	1618.21
565.83	1623.95
566.19	1629.71
566.54	1635.50
566.89	1641.00
567.25	1647.48
567.60	1655.57
567.96	1662.57
568.31	1668.60
568.66	1674.60
569.02	1678.10
569.37	1683.60
569.72	1688.55
570.08	1693.00
570.43	1697.76
570.78	1703.07
571.14	1708.31
571.49	1712.36
571.84	1717.40
572.20	1721.93
572.55	1725.21
572.90	1727.26
573.26	1731.12
573.61	1733.93
573.96	1738.29
574.31	1741.67
574.67	1743.67
575.02	1745.90
575.37	1747.52
575.72	1748.10
576.08	1750.74
576.43	1753.60
576.78	1755.17
577.13	1757.79
577.49	1759.57
577.84	1762.95
578.19	1765.17
578.54	1768.29
578.90	1772.24
579.25	1774.81
579.60	1776.24
579.95	1778.48
580.30	1780.50
580.66	1782.93
581.01	1785.48
581.36	1786.98
581.71	1788.69
582.06	1791.52
582.42	1793.00
582.77	1794.88
583.12	1797.52
583.47	1799.02
583.82	1802.36
584.17	1804.48
584.53	1807.43
584.88	1809.45
585.23	1810.76
585.58	1812.24
585.93	1812.83
586.28	1813.02
586.63	1813.62
586.98	1815.81
587.34	1817.14
587.69	1817.95
588.04	1818.52
588.39	1819.67
588.74	1820.14
589.09	1821.29
589.44	1820.86
589.79	1821.55
590.14	1821.31
590.49	1820.24
590.84	1820.43
591.19	1818.81
591.54	1819.40
591.89	1818.36
592.25	1819.74
592.60	1818.24
592.95	1817.36
593.30	1817.07
593.65	1817.05
594.00	1816.14
594.35	1820.29
594.70	1818.64
595.05	1818.19
595.40	1817.38
595.75	1815.12
596.10	1815.36
596.45	1813.26
596.80	1812.81
597.15	1811.17
597.50	1809.98
597.85	1810.74
598.19	1809.17
598.54	1807.88
598.89	1806.95
599.24	1806.43
599.59	1802.98
599.94	1801.90
600.29	1801.52
600.64	1799.86
600.99	1796.40
601.34	1795.33
601.69	1787.86
602.04	1785.83
602.39	1783.38
602.74	1781.48
603.08	1779.88
603.43	1777.69
603.78	1776.69
604.13	1774.38
604.48	1772.07
604.83	1770.57
605.18	1769.81
605.53	1767.29
605.87	1764.55
606.22	1761.33
606.57	1758.02
606.92	1755.69
607.27	1753.33
607.62	1750.00
607.96	1748.07
608.31	1746.79
608.66	1744.33
609.01	1740.93
609.36	1739.10
609.70	1736.64
610.05	1733.64
610.40	1730.90
610.75	1726.50
611.10	1722.88
611.44	1719.36
611.79	1715.12
612.14	1711.07
612.49	1704.74
612.83	1700.29
613.18	1697.00
613.53	1692.88
613.88	1688.07
614.22	1683.76
614.57	1679.14
614.92	1673.36
615.27	1667.71
615.61	1662.48
615.96	1656.62
616.31	1652.38
616.65	1647.74
617.00	1641.64
617.35	1636.29
617.70	1630.64
618.04	1625.64
618.39	1620.29
618.74	1614.07
619.08	1608.69
619.43	1603.67
619.78	1598.24
620.12	1594.50
620.47	1589.07
620.82	1583.14
621.16	1577.52
621.51	1573.14
621.85	1567.26
622.20	1562.48
622.55	1557.33
622.89	1552.07
623.24	1547.10
623.59	1541.31
623.93	1535.38
624.28	1531.17
624.62	1528.07
624.97	1524.17
625.32	1519.45
625.66	1514.36
626.01	1509.55
626.35	1505.83
626.70	1499.19
627.04	1494.76
627.39	1488.69
627.73	1483.86
628.08	1479.52
628.43	1474.52
628.77	1468.74
629.12	1464.12
629.46	1459.52
629.81	1454.40
630.15	1448.57
630.50	1443.19
630.84	1438.17
631.19	1431.79
631.53	1425.52
631.88	1416.98
632.22	1409.67
632.57	1404.26
632.91	1398.29
633.26	1392.81
633.60	1385.60
633.95	1381.00
634.29	1374.21
634.64	1367.98
634.98	1361.36
635.32	1355.57
635.67	1350.38
636.01	1344.38
636.36	1337.88
636.70	1332.67
637.05	1326.79
637.39	1321.52
637.73	1316.26
638.08	1311.05
638.42	1305.55
638.77	1300.74
639.11	1296.02
639.45	1291.02
639.80	1284.26
640.14	1278.33
640.49	1272.10
640.83	1266.05
641.17	1259.64
641.52	1253.57
641.86	1247.98
642.20	1243.26
642.55	1235.88
642.89	1229.64
643.23	1223.14
643.58	1217.76
643.92	1210.05
644.26	1202.86
644.61	1196.50
644.95	1188.76
645.29	1181.14
645.64	1175.17
645.98	1167.71
646.32	1161.40
646.66	1153.43
647.01	1147.24
647.35	1140.95
647.69	1134.74
648.04	1129.00
648.38	1123.02
648.72	1116.86
649.06	1110.26
649.41	1102.76
649.75	1096.74
650.09	1089.45
650.43	1082.67
650.78	1075.55
651.12	1069.93
651.46	1063.29
651.80	1056.02
652.14	1050.12
652.49	1043.83
652.83	1036.69
653.17	1030.45
653.51	1023.00
653.85	1017.12
654.20	1010.52
654.54	1003.57
654.88	996.86
655.22	991.07
655.56	983.48
655.90	977.05
656.25	970.48
656.59	964.19
656.93	957.98
657.27	953.12
657.61	946.83
657.95	941.26
658.29	934.90
658.64	929.38
658.98	923.88
659.32	917.26
659.66	912.00
660.00	906.74
660.34	900.21
660.68	894.31
661.02	888.17
661.36	881.67
661.70	876.21
662.05	870.71
662.39	864.57
662.73	859.55
663.07	854.40
663.41	848.76
663.75	842.10
664.09	836.43
664.43	829.36
664.77	823.52
665.11	817.55
665.45	811.67
665.79	806.14
666.13	800.05
666.47	794.57
666.81	788.40
667.15	782.00
667.49	777.40
667.83	772.90
668.17	768.14
668.51	763.00
668.85	757.79
669.19	753.95
669.53	747.71
669.87	742.07
670.21	736.69
670.55	731.31
670.89	728.31
671.23	723.24
671.57	718.55
671.91	713.90
672.25	708.57
672.58	704.17
672.92	698.93
673.26	694.45
673.60	690.00
673.94	685.55
674.28	681.57
674.62	677.21
674.96	671.71
675.30	667.71
675.64	663.26
675.97	659.12
676.31	653.48
676.65	649.48
676.99	646.21
677.33	641.40
677.67	637.31
678.01	631.98
678.34	628.33
678.68	624.74
679.02	620.52
679.36	616.64
679.70	612.10
680.04	608.07
680.37	604.14
680.71	599.88
681.05	595.60
681.39	591.52
681.73	586.95
682.06	582.81
682.40	578.45
682.74	574.95
683.08	571.43
683.42	567.12
683.75	563.29
684.09	558.12
684.43	554.21
684.77	550.10
685.10	545.83
685.44	541.88
685.78	537.74
686.12	534.05
686.45	530.33
686.79	526.26
687.13	522.64
687.46	518.60
687.80	515.88
688.14	512.17
688.48	508.57
688.81	505.29
689.15	502.95
689.49	499.29
689.82	495.67
690.16	490.83
690.50	487.62
690.83	483.43
691.17	480.67
691.51	477.43
691.84	474.71
692.18	471.74
692.52	468.43
692.85	465.81
693.19	463.48
693.52	460.10
693.86	457.12
694.20	454.10
694.53	451.14
694.87	447.60
695.21	444.83
695.54	441.55
695.88	438.19
696.21	434.14
696.55	431.02
696.88	428.21
697.22	425.79
697.56	422.95
697.89	420.50
698.23	417.86
698.56	415.26
698.90	412.50
699.23	409.88
699.57	407.29
699.90	404.29
700.24	401.33
700.58	399.33
700.91	397.07
701.25	396.29
701.58	394.48
701.92	392.57
702.25	390.12
702.59	388.07
702.92	385.88
703.26	383.88
703.59	382.02
703.93	381.71
704.26	379.86
704.60	377.81
704.93	375.90
705.26	373.64
705.60	371.86
705.93	369.21
706.27	367.55
706.60	366.00
706.94	364.98
707.27	363.02
707.61	361.05
707.94	359.36
708.27	355.93
708.61	353.98
708.94	351.90
709.28	350.33
709.61	348.36
709.94	346.71
710.28	345.14
710.61	343.48
710.95	339.93
711.28	339.31
711.61	337.69
711.95	336.60
712.28	335.02
712.61	333.52
712.95	333.57
713.28	332.98
713.61	331.07
713.95	328.83
714.28	327.43
714.61	325.76
714.95	323.88
715.28	322.14
715.61	320.26
715.95	319.40
716.28	317.83
716.61	317.02
716.95	315.83
717.28	314.48
717.61	313.21
717.94	312.00
718.28	309.55
718.61	308.38
718.94	306.71
719.27	305.43
719.61	304.29
719.94	302.50
720.27	300.12
720.60	299.24
720.94	297.83
721.27	296.88
721.60	296.12
721.93	295.31
722.27	295.21
722.60	294.50
722.93	292.60
723.26	291.81
723.59	290.29
723.93	289.33
724.26	288.67
724.59	287.52
724.92	286.81
725.25	286.57
725.59	285.57
725.92	285.31
726.25	284.57
726.58	283.57
726.91	282.33
727.24	281.88
727.57	280.88
727.91	280.05
728.24	279.02
728.57	278.10
728.90	277.62
729.23	276.45
729.56	276.67
729.89	276.33
730.22	275.40
730.55	274.83
730.89	274.31
731.22	273.26
731.55	272.86
731.88	272.24
732.21	271.02
732.54	270.33
732.87	269.38
733.20	268.60
733.53	268.12
733.86	267.83
734.19	267.07
734.52	266.76
734.85	267.57
735.18	266.83
735.51	266.98
735.84	266.52
736.17	266.52
736.50	265.12
736.83	266.86
737.16	266.40
737.49	265.76
737.82	265.00
738.15	264.62
738.48	263.79
738.81	263.17
739.14	262.43
739.47	261.71
739.80	260.90
740.13	261.05
740.46	260.26
740.79	259.45
741.12	258.69
741.45	257.76
741.78	256.24
742.11	256.33
742.44	255.24
742.77	254.71
743.10	253.69
743.43	252.76
743.75	250.02
744.08	252.33
744.41	251.83
744.74	251.19
745.07	250.55
745.40	250.43
745.73	250.60
746.06	250.36
746.39	250.33
746.71	250.07
747.04	249.14
747.37	248.76
747.70	248.64
748.03	248.43
748.36	248.62
748.68	248.07
749.01	247.10
749.34	246.62
749.67	246.38
750.00	246.40
750.33	247.69
750.65	247.69
750.98	244.52
751.31	244.31
751.64	244.31
751.97	245.12
752.29	244.79
752.62	243.48
752.95	242.95
753.28	242.33
753.60	241.98
753.93	242.31
754.26	242.14
754.59	241.21
754.91	240.95
755.24	240.48
755.57	240.10
755.90	239.76
756.22	239.45
756.55	238.86
756.88	237.88
757.20	236.21
757.53	235.07
757.86	234.69
758.19	234.40
758.51	233.93
758.84	232.64
759.17	232.33
759.49	232.52
759.82	233.17
760.15	233.07
760.47	232.76
760.80	231.74
761.13	231.90
761.45	231.74
761.78	231.48
762.11	231.33
762.43	231.12
762.76	230.83
763.08	230.81
763.41	230.55
763.74	230.71
764.06	230.57
764.39	230.76
764.71	230.67
765.04	230.43
765.37	229.98
765.69	229.50
766.02	228.90
766.34	228.43
766.67	227.60
767.00	227.71
767.32	228.40
767.65	229.74
767.97	229.07
768.30	229.10
768.62	228.88
768.95	228.26
769.27	227.86
769.60	228.02
769.92	227.60
770.25	227.24
770.57	226.50
770.90	226.19
771.22	225.76
771.55	225.74
771.87	225.76
772.20	225.86
772.52	227.52
772.85	230.19
773.17	229.93
773.50	229.48
773.82	229.00
774.15	228.12
774.47	226.29
774.80	226.07
775.12	225.98
775.45	225.98
775.77	225.90
776.09	226.00
776.42	225.88
776.74	226.31
777.07	226.07
777.39	226.36
777.72	226.21
778.04	226.38
778.36	225.90
778.69	225.74
779.01	225.76
779.33	223.95
779.66	221.24
779.98	221.14
780.31	221.38
780.63	222.02
780.95	222.21
781.28	222.36
781.60	222.24
781.92	222.00
782.25	221.52
782.57	221.57
782.89	221.29
783.22	221.19
783.54	220.50
783.86	220.93
784.19	220.36
784.51	220.98
784.83	220.62
785.16	220.62
785.48	220.43
785.80	220.21
786.12	220.52
786.45	220.57
786.77	220.90
787.09	220.71
787.42	219.88
787.74	219.67
788.06	219.64
788.38	219.40
788.71	219.31
789.03	219.71
789.35	219.64
789.67	219.40
789.99	219.29
790.32	219.29
790.64	219.48
790.96	221.40
791.28	220.50
791.61	220.38
791.93	220.45
792.25	220.45
792.57	222.02
792.89	221.29
793.21	221.38
793.54	220.98
793.86	221.00
794.18	221.17
794.50	220.81
794.82	220.93
795.14	221.26
795.47	221.50
795.79	221.36
796.11	220.90
796.43	220.95
796.75	221.00
797.07	221.10
797.39	220.57
797.71	218.90
798.04	218.88
798.36	219.21
798.68	219.31
799.00	219.29
799.32	217.93
799.64	218.62
799.96	218.62
800.28	218.98
800.60	218.52
800.92	218.83
801.24	218.71
801.56	218.67
801.89	218.50
802.21	218.57
802.53	217.95
802.85	218.67
803.17	219.50
803.49	219.10
803.81	218.74
804.13	218.76
804.45	218.62
804.77	218.88
805.09	218.67
805.41	218.36
805.73	218.00
806.05	217.55
806.37	217.12
806.69	216.93
807.01	216.62
807.33	216.64
807.65	215.76
807.97	216.88
808.28	216.71
808.60	216.43
808.92	216.21
809.24	217.93
809.56	217.62
809.88	216.86
810.20	216.90
810.52	217.14
810.84	216.76
811.16	216.50
811.48	216.40
811.80	217.02
812.12	216.98
812.43	217.50
812.75	217.79
813.07	217.64
813.39	217.50
813.71	217.38
814.03	217.43
814.35	217.40
814.67	216.45
814.98	215.98
815.30	216.05
815.62	215.55
815.94	213.86
816.26	213.64
816.58	213.31
816.89	213.50
817.21	213.12
817.53	213.36
817.85	213.45
818.17	213.43
818.48	212.64
818.80	213.05
819.12	212.69
819.44	212.24
819.76	212.12
820.07	212.26
820.39	212.36
820.71	212.57
821.03	212.76
821.34	212.83
821.66	213.57
821.98	213.83
822.30	213.86
822.61	215.24
822.93	215.12
823.25	215.21
823.57	214.83
823.88	215.60
824.20	215.45
824.52	216.10
824.83	216.17
825.15	216.00
825.47	215.90
825.79	215.88
826.10	215.88
826.42	215.76
826.74	216.00
827.05	215.67
827.37	215.60
827.69	215.48
828.00	215.36
828.32	214.83
828.64	214.40
828.95	215.62
829.27	215.10
829.58	215.24
829.90	215.52
830.22	215.67
830.53	214.83
830.85	214.69
831.17	213.86
831.48	213.62
831.80	213.71
832.11	213.50
832.43	213.40
832.75	213.24
833.06	214.50
833.38	213.79
833.69	213.95
834.01	213.93
834.32	213.81
834.64	213.45
834.96	213.88
835.27	214.14
835.59	213.19
835.90	212.55
836.22	212.55
836.53	212.43
836.85	212.31
837.16	214.50
837.48	214.60
837.79	215.33
838.11	215.67
838.42	215.74
838.74	215.95
839.05	215.67
839.37	215.81
839.68	214.57
840.00	214.50
840.31	214.69
840.63	214.52
840.94	214.45
841.26	214.55
841.57	214.43
841.88	214.50
842.20	214.29
842.51	214.36
842.83	214.29
843.14	215.71
843.46	215.64
843.77	214.50
844.08	214.48
844.40	213.81
844.71	213.48
845.03	213.33
845.34	213.19
845.65	213.21
845.97	213.14
846.28	213.17
846.60	213.40
846.91	213.05
847.22	213.05
847.54	213.45
847.85	213.45
848.16	213.07
848.48	212.74
848.79	213.79
849.10	213.76
849.42	213.79
849.73	212.05
850.04	212.21
850.36	211.52
850.67	211.90
850.98	212.07
851.30	212.38
851.61	212.38
851.92	212.57
852.23	213.31
852.55	213.45
852.86	213.79
853.17	213.79
853.49	214.21
853.80	214.79
854.11	215.00
854.42	215.33
854.74	215.14
855.05	215.19
855.36	214.33
855.67	214.45
855.99	214.45
856.30	216.83
856.61	216.48
856.92	216.52
857.23	216.45
857.55	216.19
857.86	216.05
858.17	216.31
858.48	215.74
858.79	215.26
859.11	215.52
859.42	215.24
859.73	215.02
860.04	214.86
860.35	214.12
860.66	213.64
860.98	213.50
861.29	214.02
861.60	214.00
861.91	214.07
862.22	213.62
862.53	213.26
862.84	210.76
863.16	211.38
863.47	210.90
863.78	210.83
864.09	210.95
864.40	211.02
864.71	210.81
865.02	211.38
865.33	211.02
865.64	210.64
865.95	210.76
866.27	212.10
866.58	211.95
866.89	212.24
867.20	212.07
867.51	211.86
867.82	211.60
868.13	212.14
868.44	211.88
868.75	212.55
869.06	212.81
869.37	213.21
869.68	212.71
869.99	213.48
870.30	213.36
870.61	213.62
870.92	213.21
871.23	213.00
871.54	212.95
871.85	213.69
872.16	213.76
872.47	213.26
872.78	211.88
873.09	212.17
873.40	212.10
873.71	212.17
874.02	212.29
874.33	212.05
874.64	211.55
874.95	212.00
875.26	211.67
875.56	211.52
875.87	211.21
876.18	211.19
876.49	212.95
876.80	212.90
877.11	212.60
877.42	212.74
877.73	213.05
878.04	212.62
878.35	212.55
878.66	212.71
878.96	212.79
879.27	212.88
879.58	212.90
879.89	212.74
880.20	213.36
880.51	213.17
880.82	213.14
881.12	213.40
881.43	212.86
881.74	212.40
882.05	212.40
882.36	212.60
882.67	212.76
882.97	210.52
883.28	210.57
883.59	210.60
883.90	210.95
884.21	211.31
884.51	211.50
884.82	211.19
885.13	211.05
885.44	211.24
885.74	211.24
886.05	211.05
886.36	211.29
886.67	210.48
886.98	211.71
887.28	212.26
887.59	211.95
887.90	212.10
888.20	211.98
888.51	212.55
888.82	212.26
889.13	212.24
889.43	213.69
889.74	213.29
890.05	213.21
890.35	212.95
890.66	212.64
890.97	212.50
891.28	212.26
891.58	212.12
891.89	212.02
892.20	212.21
892.50	211.95
892.81	211.62
893.12	212.00
893.42	210.98
893.73	211.02
894.04	211.43
894.34	211.69
894.65	211.88
894.95	211.50
895.26	211.69
895.57	212.71
895.87	211.10
896.18	211.64
896.48	212.05
896.79	212.02
897.10	212.17
897.40	212.26
897.71	212.48
898.01	212.48
898.32	212.95
898.63	212.69
898.93	212.81
899.24	212.79
899.54	212.48
899.85	212.26
900.15	212.00
900.46	212.05
900.76	212.14
901.07	212.21
901.38	212.14
901.68	212.31
901.99	211.31
902.29	211.52
902.60	211.14
902.90	210.76
903.21	210.81
903.51	210.79
903.82	211.33
904.12	211.43
904.43	211.71
904.73	211.55
905.03	211.90
905.34	213.79
905.64	213.83
905.95	213.95
906.25	214.17
906.56	213.93
906.86	213.67
907.17	213.60
907.47	213.79
907.77	213.81
908.08	213.43
908.38	213.67
908.69	213.76
908.99	214.31
909.30	214.43
909.60	214.48
909.90	214.50
910.21	213.76
910.51	213.76
910.81	213.83
911.12	213.79
911.42	213.55
911.73	211.52
912.03	211.55
912.33	211.81
912.64	211.55
912.94	211.36
913.24	211.17
913.55	210.83
913.85	210.55
914.15	210.83
914.46	211.19
914.76	210.83
915.06	210.64
915.37	210.29
915.67	210.19
915.97	210.14
916.27	209.79
916.58	210.05
916.88	209.88
917.18	209.79
917.49	211.26
917.79	211.19
918.09	211.55
918.39	212.26
918.70	212.07
919.00	212.21
919.30	213.43
919.60	213.05
919.91	212.90
920.21	212.95
920.51	212.48
920.81	212.29
921.12	212.71
921.42	212.57
921.72	212.76
922.02	212.79
922.32	213.00
922.63	213.05
922.93	214.10
923.23	214.29
923.53	214.10
923.83	212.76
924.13	213.26
924.44	213.14
924.74	213.40
925.04	213.88
925.34	213.81
925.64	213.00
925.94	213.21
926.24	214.60
926.55	214.64
926.85	214.71
927.15	214.76
927.45	214.52
927.75	214.67
928.05	214.43
928.35	214.19
928.65	214.50
928.95	214.64
929.26	213.67
929.56	213.74
929.86	213.76
930.16	213.52
930.46	213.19
930.76	213.21
931.06	212.21
931.36	211.57
931.66	211.67
931.96	211.76
932.26	211.90
932.56	210.90
932.86	211.05
933.16	211.17
933.46	211.05
933.76	210.76
934.06	211.38
934.36	212.29
934.66	212.31
934.96	212.12
935.26	212.21
935.56	212.40
935.86	211.98
936.16	212.14
936.46	212.02
936.76	211.83
937.06	211.57
937.36	211.74
937.66	211.95
937.96	212.14
938.26	211.76
938.56	211.74
938.86	211.74
939.16	212.33
939.46	212.64
939.76	212.76
940.06	213.21
940.35	212.50
940.65	211.48
940.95	211.76
941.25	211.24
941.55	210.81
941.85	210.71
942.15	211.14
942.45	211.40
942.75	211.40
943.04	211.67
943.34	212.12
943.64	211.98
943.94	211.81
944.24	211.76
944.54	212.00
944.84	211.90
945.13	211.69
945.43	211.00
945.73	210.83
946.03	210.64
946.33	210.31
946.62	210.48
946.92	210.43
947.22	210.45
947.52	210.69
947.82	210.98
948.11	210.64
948.41	210.21
948.71	209.57
949.01	209.43
949.31	209.12
949.60	209.02
949.90	209.17
950.20	209.10
950.50	209.02
950.79	208.67
951.09	208.98
951.39	208.93
951.69	208.74
951.98	209.07
952.28	209.55
952.58	209.36
952.87	209.14
953.17	209.36
953.47	209.17
953.76	209.12
954.06	209.24
954.36	209.05
954.66	209.10
954.95	209.81
955.25	210.40
955.55	210.57
955.84	210.26
956.14	210.60
956.44	210.79
956.73	210.45
957.03	210.57
957.32	210.52
957.62	210.43
957.92	211.07
958.21	210.93
958.51	213.14
958.81	213.43
959.10	213.86
959.40	214.31
959.69	214.43
959.99	214.50
960.29	213.98
960.58	213.98
960.88	214.79
961.17	214.48
961.47	214.55
961.76	214.50
962.06	215.00
962.36	214.69
962.65	214.79
962.95	215.07
963.24	215.19
963.54	215.33
963.83	215.45
964.13	215.12
964.42	214.50
964.72	212.67
965.01	212.79
965.31	212.43
965.60	211.81
965.90	213.10
966.19	212.62
966.49	213.05
966.78	213.05
967.08	212.69
967.37	212.64
967.67	212.21
967.96	212.57
968.26	212.43
968.55	212.74
968.85	212.43
969.14	212.36
969.43	212.31
969.73	211.88
970.02	212.21
970.32	212.05
970.61	212.31
970.91	211.76
971.20	211.48
971.49	211.26
971.79	211.76
972.08	210.40
972.38	210.88
972.67	210.74
972.96	211.24
973.26	210.88
973.55	211.60
973.85	211.55
974.14	211.36
974.43	211.43
974.73	210.98
975.02	210.79
975.31	210.69
975.61	210.55
975.90	210.43
976.19	209.88
976.49	210.31
976.78	210.21
977.07	209.95
977.37	210.05
977.66	210.38
977.95	209.90
978.24	210.05
978.54	210.45
978.83	210.38
979.12	209.90
979.42	210.17
979.71	209.74
980.00	209.62
980.29	209.74
980.59	209.24
980.88	209.55
981.17	209.64
981.46	209.83
981.76	209.95
982.05	210.76
982.34	210.95
982.63	210.74
982.93	210.57
983.22	211.29
983.51	211.31
983.80	211.45
984.09	211.76
984.39	211.55
984.68	211.07
984.97	211.29
985.26	211.40
985.55	211.43
985.85	210.95
986.14	211.52
986.43	211.88
986.72	212.14
987.01	211.71
987.30	211.90
987.59	211.76
987.89	211.83
988.18	211.10
988.47	211.00
988.76	210.74
989.05	210.83
989.34	210.62
989.63	211.12
989.92	211.17
990.22	210.95
990.51	210.74
990.80	210.88
991.09	211.00
991.38	211.10
991.67	210.76
991.96	210.60
992.25	210.62
992.54	210.05
992.83	209.86
993.12	210.02
993.41	210.21
993.70	211.14
993.99	211.40
994.28	211.64
994.58	211.90
994.87	211.86
995.16	211.74
995.45	211.38
995.74	210.60
996.03	210.71
996.32	210.86
996.61	211.62
996.90	211.45
997.19	211.21
997.48	211.26
997.77	211.17
998.06	211.24
998.34	210.86
998.63	210.86
998.92	211.19
999.21	211.50
999.50	211.62
999.79	210.67
1000.08	210.67
1000.37	210.67
1000.66	210.40
1000.95	211.10
1001.24	211.33
1001.53	211.67
1001.82	211.64
1002.11	211.10
1002.40	211.19
1002.68	211.50
1002.97	212.83
1003.26	212.45
1003.55	212.14
1003.84	212.43
1004.13	213.17
1004.42	213.05
1004.71	213.00
1004.99	212.67
1005.28	213.29
1005.57	213.02
1005.86	213.07
1006.15	212.90
1006.44	212.79
1006.72	213.24
1007.01	212.57
1007.30	212.60
1007.59	212.36
1007.88	212.48
1008.17	212.55
1008.45	212.29
1008.74	211.38
1009.03	210.40
1009.32	210.62
1009.60	210.67
1009.89	210.57
1010.18	209.79
1010.47	209.69
1010.76	209.69
1011.04	209.64
1011.33	211.57
1011.62	211.64
1011.91	211.69
1012.19	211.81
1012.48	211.88
1012.77	211.64
1013.05	212.76
1013.34	212.81
1013.63	212.48
1013.92	212.52
1014.20	212.48
1014.49	212.67
1014.78	212.86
1015.06	212.19
1015.35	212.31
1015.64	212.64
1015.92	212.69
1016.21	212.83
1016.50	213.07
1016.78	213.33
1017.07	213.36
1017.36	210.74
1017.64	210.55
1017.93	210.69
1018.22	210.43
1018.50	210.31
1018.79	210.12
1019.08	209.19
1019.36	209.40
1019.65	209.57
1019.93	210.17
1020.22	210.64
1020.51	211.69
1020.79	211.60
1021.08	207.00
1021.36	206.50
1021.65	207.00
1021.94	210.00
1022.22	215.00
1022.51	208.00
1022.79	219.50
1023.08	216.50
1023.36	236.00
1023.65	207.50
>>>>>End Processed Spectral Data<<<<<
