SpectraSuite Data File
++++++++++++++++++++++++++++++++++++
Date: Tue Apr 02 18:40:18 EDT 2013
User: group
Dark Spectrum Present: No
Reference Spectrum Present: No
Number of Sampled Component Spectra: 1
Spectrometers: USB2E7196
Integration Time (usec): 580000 (USB2E7196)
Spectra Averaged: 2 (USB2E7196)
Boxcar Smoothing: 10 (USB2E7196)
Correct for Electrical Dark: No (USB2E7196)
Strobe/Lamp Enabled: No (USB2E7196)
Correct for Detector Non-linearity: No (USB2E7196)
Correct for Stray Light: No (USB2E7196)
Number of Pixels in Processed Spectrum: 2048
>>>>>Begin Processed Spectral Data<<<<<
339.09	0.00
339.48	199.50
339.86	193.50
340.24	198.00
340.63	198.00
341.01	233.50
341.39	200.00
341.78	202.00
342.16	212.00
342.54	203.00
342.93	198.19
343.31	208.19
343.69	208.55
344.07	209.05
344.46	210.00
344.84	210.52
345.22	209.52
345.60	210.00
345.99	210.43
346.37	210.29
346.75	210.52
347.13	210.71
347.52	210.62
347.90	211.29
348.28	211.07
348.66	211.43
349.05	210.98
349.43	211.14
349.81	211.55
350.19	211.67
350.57	211.81
350.96	211.88
351.34	211.81
351.72	212.05
352.10	212.29
352.48	211.76
352.87	211.62
353.25	211.29
353.63	211.05
354.01	211.14
354.39	211.24
354.77	211.29
355.15	212.02
355.54	211.79
355.92	211.07
356.30	211.24
356.68	212.50
357.06	212.67
357.44	212.45
357.82	212.12
358.20	212.90
358.58	212.88
358.97	213.05
359.35	213.33
359.73	213.50
360.11	213.36
360.49	213.57
360.87	213.76
361.25	214.00
361.63	214.69
362.01	214.88
362.39	214.88
362.77	215.00
363.15	214.57
363.53	214.76
363.91	215.07
364.29	215.10
364.67	213.21
365.05	213.14
365.43	213.43
365.81	213.60
366.19	213.74
366.57	214.50
366.95	214.21
367.33	214.00
367.71	214.02
368.09	214.60
368.47	214.48
368.85	214.29
369.23	214.88
369.61	214.26
369.99	214.88
370.37	215.26
370.75	216.33
371.13	216.10
371.51	215.86
371.89	215.98
372.27	216.00
372.65	216.21
373.03	216.33
373.41	216.24
373.78	216.26
374.16	215.26
374.54	214.45
374.92	214.79
375.30	214.71
375.68	214.45
376.06	214.57
376.44	214.50
376.82	214.95
377.19	214.52
377.57	214.38
377.95	213.57
378.33	213.26
378.71	212.19
379.09	212.48
379.47	212.81
379.84	212.57
380.22	212.50
380.60	212.14
380.98	212.26
381.36	211.88
381.73	211.79
382.11	212.12
382.49	212.43
382.87	212.07
383.25	212.38
383.62	214.60
384.00	214.02
384.38	214.00
384.76	214.33
385.13	215.31
385.51	215.55
385.89	215.38
386.27	215.29
386.64	215.31
387.02	215.07
387.40	214.71
387.78	214.81
388.15	214.95
388.53	214.71
388.91	214.48
389.29	214.38
389.66	214.69
390.04	214.21
390.42	214.60
390.79	214.74
391.17	214.69
391.55	212.69
391.92	212.90
392.30	213.38
392.68	212.83
393.05	212.67
393.43	212.71
393.81	212.79
394.18	212.62
394.56	212.93
394.94	213.55
395.31	213.43
395.69	214.17
396.06	214.31
396.44	214.57
396.82	214.43
397.19	215.38
397.57	214.88
397.95	215.45
398.32	215.02
398.70	215.17
399.07	215.57
399.45	215.48
399.82	215.31
400.20	215.07
400.58	215.10
400.95	214.48
401.33	215.19
401.70	216.79
402.08	216.98
402.45	217.12
402.83	217.52
403.20	218.12
403.58	217.74
403.95	218.26
404.33	219.00
404.71	219.40
405.08	220.76
405.46	221.05
405.83	221.48
406.21	221.69
406.58	221.93
406.96	221.98
407.33	222.74
407.70	223.45
408.08	225.69
408.45	226.74
408.83	227.86
409.20	228.05
409.58	227.62
409.95	228.76
410.33	229.45
410.70	229.83
411.08	231.17
411.45	232.67
411.82	233.55
412.20	235.31
412.57	238.05
412.95	237.95
413.32	240.26
413.69	241.86
414.07	243.62
414.44	245.83
414.82	247.88
415.19	250.31
415.56	252.57
415.94	254.07
416.31	257.14
416.68	259.88
417.06	263.64
417.43	267.19
417.81	271.21
418.18	275.50
418.55	279.43
418.93	283.60
419.30	288.02
419.67	292.90
420.04	297.40
420.42	301.62
420.79	309.05
421.16	314.90
421.54	321.81
421.91	328.81
422.28	335.31
422.66	342.55
423.03	350.74
423.40	358.36
423.77	365.79
424.15	373.36
424.52	381.81
424.89	390.81
425.26	399.36
425.64	407.21
426.01	415.76
426.38	425.24
426.75	435.00
427.13	444.93
427.50	455.14
427.87	465.86
428.24	476.64
428.61	485.83
428.99	497.86
429.36	509.79
429.73	521.52
430.10	533.67
430.47	546.00
430.85	557.31
431.22	570.71
431.59	586.69
431.96	599.93
432.33	614.60
432.70	629.33
433.08	645.88
433.45	662.43
433.82	678.81
434.19	697.17
434.56	715.38
434.93	732.36
435.30	749.50
435.68	768.05
436.05	786.93
436.42	805.33
436.79	822.29
437.16	840.50
437.53	859.40
437.90	879.12
438.27	898.50
438.64	918.26
439.01	936.52
439.38	951.02
439.75	966.88
440.13	985.36
440.50	1002.02
440.87	1016.48
441.24	1030.40
441.61	1046.05
441.98	1057.33
442.35	1070.26
442.72	1084.24
443.09	1098.21
443.46	1105.76
443.83	1110.71
444.20	1114.83
444.57	1120.76
444.94	1124.00
445.31	1127.83
445.68	1133.05
446.05	1134.00
446.42	1131.98
446.79	1130.95
447.16	1129.55
447.53	1129.26
447.90	1121.62
448.27	1114.69
448.64	1105.17
449.01	1098.40
449.37	1086.12
449.74	1074.64
450.11	1062.14
450.48	1046.02
450.85	1029.21
451.22	1016.33
451.59	1004.07
451.96	991.88
452.33	975.14
452.70	959.57
453.07	940.95
453.43	920.64
453.80	903.88
454.17	887.43
454.54	870.45
454.91	852.55
455.28	834.74
455.65	819.33
456.02	806.62
456.38	793.02
456.75	776.48
457.12	762.36
457.49	748.62
457.86	733.31
458.23	722.29
458.59	709.76
458.96	696.52
459.33	684.45
459.70	673.88
460.07	665.36
460.43	654.83
460.80	646.17
461.17	638.02
461.54	628.45
461.91	619.57
462.27	610.60
462.64	603.29
463.01	595.24
463.38	588.29
463.74	577.17
464.11	569.90
464.48	564.12
464.85	557.50
465.21	552.93
465.58	547.81
465.95	540.69
466.32	535.36
466.68	530.02
467.05	524.90
467.42	519.52
467.78	513.69
468.15	508.74
468.52	504.55
468.88	498.40
469.25	493.40
469.62	490.36
469.98	486.62
470.35	482.60
470.72	478.81
471.08	473.64
471.45	471.17
471.82	469.00
472.18	465.19
472.55	462.76
472.92	458.17
473.28	454.76
473.65	452.12
474.02	449.24
474.38	447.62
474.75	445.93
475.11	442.95
475.48	441.29
475.85	439.43
476.21	437.57
476.58	436.21
476.94	435.38
477.31	433.43
477.67	431.88
478.04	430.83
478.41	430.29
478.77	431.93
479.14	430.19
479.50	428.64
479.87	428.43
480.23	427.95
480.60	428.12
480.96	428.26
481.33	429.05
481.69	428.88
482.06	428.62
482.42	428.88
482.79	429.60
483.15	429.83
483.52	430.95
483.88	431.71
484.25	432.71
484.61	433.43
484.98	434.07
485.34	436.14
485.71	437.60
486.07	439.14
486.44	438.93
486.80	440.64
487.17	442.40
487.53	444.67
487.90	447.29
488.26	450.43
488.62	453.38
488.99	454.98
489.35	457.95
489.72	460.45
490.08	462.57
490.44	465.24
490.81	468.98
491.17	472.29
491.54	475.55
491.90	479.31
492.26	483.07
492.63	487.02
492.99	490.86
493.36	495.29
493.72	499.83
494.08	504.21
494.45	509.33
494.81	514.81
495.17	519.69
495.54	525.07
495.90	529.90
496.26	535.40
496.63	541.93
496.99	547.52
497.35	554.05
497.72	560.83
498.08	567.38
498.44	574.00
498.80	580.50
499.17	587.19
499.53	593.31
499.89	600.86
500.26	608.60
500.62	615.62
500.98	623.12
501.34	630.14
501.71	638.24
502.07	645.79
502.43	653.52
502.79	661.07
503.16	668.40
503.52	676.19
503.88	683.24
504.24	691.10
504.60	699.60
504.97	708.05
505.33	716.57
505.69	726.17
506.05	734.14
506.41	742.90
506.78	751.29
507.14	759.93
507.50	767.90
507.86	776.43
508.22	784.67
508.59	792.74
508.95	801.48
509.31	810.40
509.67	818.90
510.03	827.33
510.39	835.76
510.75	844.19
511.12	852.74
511.48	861.76
511.84	870.43
512.20	879.00
512.56	887.33
512.92	895.69
513.28	902.95
513.64	911.26
514.00	918.95
514.37	927.02
514.73	935.07
515.09	944.10
515.45	951.45
515.81	959.50
516.17	967.31
516.53	974.48
516.89	981.12
517.25	988.52
517.61	996.38
517.97	1004.19
518.33	1011.55
518.69	1018.76
519.05	1026.45
519.41	1033.29
519.77	1041.52
520.13	1048.00
520.49	1054.33
520.85	1061.21
521.21	1068.50
521.57	1076.29
521.93	1082.00
522.29	1088.71
522.65	1094.00
523.01	1101.12
523.37	1106.79
523.73	1113.17
524.09	1119.76
524.45	1125.38
524.81	1130.69
525.17	1136.33
525.53	1141.60
525.89	1147.98
526.25	1153.48
526.61	1157.98
526.97	1163.07
527.33	1167.19
527.68	1174.62
528.04	1180.00
528.40	1184.60
528.76	1190.14
529.12	1195.10
529.48	1201.67
529.84	1206.50
530.20	1211.74
530.56	1216.55
530.91	1222.71
531.27	1228.36
531.63	1233.43
531.99	1239.17
532.35	1244.07
532.71	1247.64
533.07	1253.45
533.42	1259.90
533.78	1265.40
534.14	1271.40
534.50	1275.83
534.86	1282.31
535.21	1285.17
535.57	1290.81
535.93	1296.00
536.29	1301.60
536.65	1306.48
537.00	1310.43
537.36	1315.50
537.72	1320.36
538.08	1325.38
538.44	1329.19
538.79	1333.29
539.15	1337.29
539.51	1341.62
539.87	1346.43
540.22	1351.69
540.58	1355.88
540.94	1358.38
541.29	1362.48
541.65	1365.29
542.01	1370.90
542.37	1373.24
542.72	1376.76
543.08	1379.29
543.44	1384.48
543.79	1386.17
544.15	1389.79
544.51	1395.12
544.87	1399.43
545.22	1403.62
545.58	1406.43
545.94	1410.36
546.29	1413.98
546.65	1418.31
547.01	1422.10
547.36	1425.69
547.72	1429.05
548.07	1432.50
548.43	1435.90
548.79	1439.05
549.14	1443.02
549.50	1446.45
549.86	1449.57
550.21	1453.74
550.57	1457.86
550.92	1459.93
551.28	1464.52
551.64	1468.10
551.99	1470.57
552.35	1473.64
552.70	1477.19
553.06	1481.33
553.41	1485.55
553.77	1490.36
554.13	1494.40
554.48	1499.26
554.84	1504.60
555.19	1508.81
555.55	1514.55
555.90	1518.40
556.26	1522.60
556.61	1527.10
556.97	1529.86
557.32	1535.21
557.68	1539.52
558.03	1544.45
558.39	1548.88
558.74	1553.48
559.10	1557.71
559.45	1563.17
559.81	1567.93
560.16	1571.21
560.52	1575.95
560.87	1580.52
561.23	1583.52
561.58	1588.71
561.94	1592.07
562.29	1595.90
562.64	1601.21
563.00	1604.07
563.35	1609.05
563.71	1614.19
564.06	1619.52
564.42	1625.29
564.77	1630.07
565.12	1636.05
565.48	1642.64
565.83	1648.64
566.19	1653.45
566.54	1658.64
566.89	1662.48
567.25	1668.00
567.60	1675.64
567.96	1682.64
568.31	1688.88
568.66	1695.10
569.02	1699.00
569.37	1703.88
569.72	1710.00
570.08	1714.76
570.43	1719.00
570.78	1723.31
571.14	1728.43
571.49	1731.98
571.84	1735.76
572.20	1740.07
572.55	1744.60
572.90	1746.93
573.26	1750.29
573.61	1753.50
573.96	1757.86
574.31	1761.98
574.67	1764.64
575.02	1765.79
575.37	1767.10
575.72	1768.79
576.08	1771.55
576.43	1773.98
576.78	1776.00
577.13	1777.38
577.49	1779.50
577.84	1782.86
578.19	1785.74
578.54	1787.76
578.90	1791.29
579.25	1795.24
579.60	1796.76
579.95	1797.57
580.30	1799.33
580.66	1802.02
581.01	1803.81
581.36	1804.64
581.71	1806.74
582.06	1810.45
582.42	1812.76
582.77	1814.19
583.12	1815.57
583.47	1816.93
583.82	1818.50
584.17	1820.38
584.53	1822.55
584.88	1822.90
585.23	1824.36
585.58	1824.69
585.93	1824.83
586.28	1825.33
586.63	1825.19
586.98	1826.43
587.34	1827.48
587.69	1827.74
588.04	1826.69
588.39	1827.67
588.74	1826.21
589.09	1826.14
589.44	1823.24
589.79	1823.26
590.14	1823.79
590.49	1822.55
590.84	1822.21
591.19	1822.12
591.54	1822.52
591.89	1820.81
592.25	1822.95
592.60	1821.36
592.95	1822.14
593.30	1821.86
593.65	1820.24
594.00	1818.45
594.35	1823.10
594.70	1821.29
595.05	1820.86
595.40	1820.60
595.75	1818.90
596.10	1818.90
596.45	1817.29
596.80	1817.81
597.15	1816.64
597.50	1815.36
597.85	1816.31
598.19	1814.57
598.54	1813.21
598.89	1810.60
599.24	1810.21
599.59	1806.57
599.94	1804.76
600.29	1801.50
600.64	1799.52
600.99	1797.74
601.34	1796.74
601.69	1787.86
602.04	1786.17
602.39	1782.86
602.74	1780.45
603.08	1778.52
603.43	1777.88
603.78	1775.55
604.13	1772.52
604.48	1770.12
604.83	1767.24
605.18	1763.24
605.53	1760.19
605.87	1756.74
606.22	1754.64
606.57	1751.33
606.92	1748.07
607.27	1745.19
607.62	1743.52
607.96	1740.83
608.31	1738.62
608.66	1735.10
609.01	1731.43
609.36	1727.64
609.70	1724.48
610.05	1720.81
610.40	1716.95
610.75	1711.24
611.10	1707.79
611.44	1702.90
611.79	1698.26
612.14	1693.74
612.49	1689.14
612.83	1684.02
613.18	1679.52
613.53	1674.33
613.88	1668.48
614.22	1663.40
614.57	1658.12
614.92	1651.57
615.27	1645.88
615.61	1639.17
615.96	1633.24
616.31	1628.67
616.65	1624.07
617.00	1619.64
617.35	1614.74
617.70	1609.52
618.04	1604.60
618.39	1598.55
618.74	1593.38
619.08	1587.21
619.43	1581.88
619.78	1576.60
620.12	1572.79
620.47	1567.26
620.82	1561.17
621.16	1555.52
621.51	1551.81
621.85	1546.81
622.20	1541.21
622.55	1535.45
622.89	1530.52
623.24	1525.86
623.59	1520.24
623.93	1514.90
624.28	1509.14
624.62	1505.64
624.97	1501.40
625.32	1495.64
625.66	1490.33
626.01	1484.50
626.35	1480.50
626.70	1474.90
627.04	1470.57
627.39	1464.83
627.73	1460.90
628.08	1457.12
628.43	1451.83
628.77	1444.81
629.12	1440.24
629.46	1435.62
629.81	1430.26
630.15	1424.21
630.50	1417.17
630.84	1411.48
631.19	1404.95
631.53	1399.33
631.88	1390.62
632.22	1382.98
632.57	1377.69
632.91	1371.45
633.26	1366.02
633.60	1359.57
633.95	1353.26
634.29	1346.55
634.64	1340.05
634.98	1332.86
635.32	1326.45
635.67	1321.02
636.01	1315.02
636.36	1307.83
636.70	1302.62
637.05	1296.98
637.39	1291.05
637.73	1286.95
638.08	1282.98
638.42	1277.93
638.77	1272.62
639.11	1267.40
639.45	1261.57
639.80	1255.02
640.14	1249.26
640.49	1243.60
640.83	1237.12
641.17	1231.33
641.52	1225.17
641.86	1219.19
642.20	1214.02
642.55	1207.26
642.89	1201.33
643.23	1195.62
643.58	1190.33
643.92	1182.67
644.26	1175.50
644.61	1169.71
644.95	1162.74
645.29	1154.48
645.64	1147.62
645.98	1140.40
646.32	1133.74
646.66	1126.88
647.01	1119.83
647.35	1113.33
647.69	1107.12
648.04	1101.07
648.38	1095.14
648.72	1088.26
649.06	1081.67
649.41	1074.64
649.75	1068.31
650.09	1061.14
650.43	1054.45
650.78	1046.86
651.12	1040.55
651.46	1034.43
651.80	1027.83
652.14	1021.57
652.49	1016.29
652.83	1008.86
653.17	1001.88
653.51	995.88
653.85	989.93
654.20	984.67
654.54	978.10
654.88	971.02
655.22	964.60
655.56	957.12
655.90	950.81
656.25	944.38
656.59	937.60
656.93	931.43
657.27	926.36
657.61	920.60
657.95	915.26
658.29	909.12
658.64	903.52
658.98	897.24
659.32	890.40
659.66	884.12
660.00	879.12
660.34	873.62
660.68	867.69
661.02	861.93
661.36	855.67
661.70	849.95
662.05	844.45
662.39	839.33
662.73	834.93
663.07	830.43
663.41	825.40
663.75	819.55
664.09	814.19
664.43	807.45
664.77	801.26
665.11	795.02
665.45	789.79
665.79	784.17
666.13	778.88
666.47	773.52
666.81	767.62
667.15	762.12
667.49	757.02
667.83	752.07
668.17	746.93
668.51	741.88
668.85	737.05
669.19	732.48
669.53	726.50
669.87	720.36
670.21	714.21
670.55	708.74
670.89	705.21
671.23	699.90
671.57	695.76
671.91	691.76
672.25	687.38
672.58	683.93
672.92	679.19
673.26	674.67
673.60	670.57
673.94	666.26
674.28	662.02
674.62	657.83
674.96	652.98
675.30	648.64
675.64	644.60
675.97	640.45
676.31	636.10
676.65	631.52
676.99	628.43
677.33	624.24
677.67	620.24
678.01	615.21
678.34	611.45
678.68	607.81
679.02	602.79
679.36	598.43
679.70	592.88
680.04	589.12
680.37	584.95
680.71	580.48
681.05	576.64
681.39	572.55
681.73	568.07
682.06	563.48
682.40	559.12
682.74	555.50
683.08	551.83
683.42	547.67
683.75	544.38
684.09	539.74
684.43	535.93
684.77	532.02
685.10	528.31
685.44	524.36
685.78	519.90
686.12	516.26
686.45	512.50
686.79	509.05
687.13	505.62
687.46	502.43
687.80	499.98
688.14	496.40
688.48	493.12
688.81	489.95
689.15	487.69
689.49	484.52
689.82	481.19
690.16	477.31
690.50	473.57
690.83	470.05
691.17	466.62
691.51	463.60
691.84	460.48
692.18	457.52
692.52	454.43
692.85	451.95
693.19	450.19
693.52	447.40
693.86	444.29
694.20	441.12
694.53	437.83
694.87	434.21
695.21	431.19
695.54	428.33
695.88	424.81
696.21	421.26
696.55	418.40
696.88	415.29
697.22	412.90
697.56	411.02
697.89	408.36
698.23	406.19
698.56	403.57
698.90	401.29
699.23	398.60
699.57	396.31
699.90	393.55
700.24	390.33
700.58	388.36
700.91	386.57
701.25	385.79
701.58	384.33
701.92	382.60
702.25	380.36
702.59	377.83
702.92	376.07
703.26	374.00
703.59	371.76
703.93	371.69
704.26	369.43
704.60	367.57
704.93	365.64
705.26	363.71
705.60	362.21
705.93	360.19
706.27	359.00
706.60	357.57
706.94	356.38
707.27	354.52
707.61	352.67
707.94	350.81
708.27	347.86
708.61	345.45
708.94	343.93
709.28	342.64
709.61	341.07
709.94	339.69
710.28	338.19
710.61	337.24
710.95	333.60
711.28	333.43
711.61	331.57
711.95	330.40
712.28	328.64
712.61	327.02
712.95	326.69
713.28	325.95
713.61	324.14
713.95	322.26
714.28	320.95
714.61	319.52
714.95	318.12
715.28	316.38
715.61	315.17
715.95	313.90
716.28	312.48
716.61	311.67
716.95	310.14
717.28	309.00
717.61	307.50
717.94	306.50
718.28	303.69
718.61	302.57
718.94	301.24
719.27	300.10
719.61	299.00
719.94	297.19
720.27	295.10
720.60	293.90
720.94	292.74
721.27	291.83
721.60	290.95
721.93	289.71
722.27	289.43
722.60	288.71
722.93	287.19
723.26	286.33
723.59	284.93
723.93	284.29
724.26	283.67
724.59	282.64
724.92	281.76
725.25	281.86
725.59	281.05
725.92	280.50
726.25	279.86
726.58	279.21
726.91	278.14
727.24	277.67
727.57	276.76
727.91	275.88
728.24	275.21
728.57	274.19
728.90	273.71
729.23	272.38
729.56	272.90
729.89	272.40
730.22	271.60
730.55	271.02
730.89	270.29
731.22	269.50
731.55	269.14
731.88	269.00
732.21	268.14
732.54	267.12
732.87	266.33
733.20	265.81
733.53	265.29
733.86	265.21
734.19	264.12
734.52	264.07
734.85	265.05
735.18	264.21
735.51	264.50
735.84	264.52
736.17	264.64
736.50	262.81
736.83	264.55
737.16	264.05
737.49	263.43
737.82	262.69
738.15	262.40
738.48	261.81
738.81	260.71
739.14	259.95
739.47	259.67
739.80	259.21
740.13	258.93
740.46	257.88
740.79	256.81
741.12	256.67
741.45	255.98
741.78	254.40
742.11	254.48
742.44	253.33
742.77	252.71
743.10	252.00
743.43	251.38
743.75	248.98
744.08	251.19
744.41	250.76
744.74	250.21
745.07	249.12
745.40	248.74
745.73	249.38
746.06	248.98
746.39	248.60
746.71	248.00
747.04	247.31
747.37	247.02
747.70	247.14
748.03	246.60
748.36	246.29
748.68	245.83
749.01	245.19
749.34	244.81
749.67	244.67
750.00	244.60
750.33	245.76
750.65	245.52
750.98	242.67
751.31	242.55
751.64	242.40
751.97	243.43
752.29	242.79
752.62	241.52
752.95	241.07
753.28	240.62
753.60	240.50
753.93	240.60
754.26	240.38
754.59	239.50
754.91	239.02
755.24	238.67
755.57	238.38
755.90	238.07
756.22	237.86
756.55	237.07
756.88	236.43
757.20	234.88
757.53	234.05
757.86	233.74
758.19	233.45
758.51	233.50
758.84	232.14
759.17	232.00
759.49	231.81
759.82	232.79
760.15	232.98
760.47	232.60
760.80	231.71
761.13	231.98
761.45	231.81
761.78	231.45
762.11	231.43
762.43	230.79
762.76	230.40
763.08	230.19
763.41	230.02
763.74	229.81
764.06	229.62
764.39	229.50
764.71	229.38
765.04	229.05
765.37	228.62
765.69	228.50
766.02	228.45
766.34	228.33
766.67	227.12
767.00	227.12
767.32	228.12
767.65	229.57
767.97	229.24
768.30	229.12
768.62	229.12
768.95	228.50
769.27	228.50
769.60	228.64
769.92	228.50
770.25	228.17
770.57	227.57
770.90	227.10
771.22	226.90
771.55	226.62
771.87	226.67
772.20	226.45
772.52	228.07
772.85	230.31
773.17	230.24
773.50	230.21
773.82	229.50
774.15	228.36
774.47	226.81
774.80	226.29
775.12	226.24
775.45	226.05
775.77	226.10
776.09	226.24
776.42	226.02
776.74	226.36
777.07	226.05
777.39	226.21
777.72	226.26
778.04	226.21
778.36	226.00
778.69	225.67
779.01	225.71
779.33	223.76
779.66	221.21
779.98	220.83
780.31	220.69
780.63	221.76
780.95	221.88
781.28	221.81
781.60	221.69
781.92	221.50
782.25	221.55
782.57	221.57
782.89	221.31
783.22	220.98
783.54	220.60
783.86	221.05
784.19	220.95
784.51	221.74
784.83	221.38
785.16	221.38
785.48	221.29
785.80	220.95
786.12	221.12
786.45	221.21
786.77	221.33
787.09	221.19
787.42	220.45
787.74	220.52
788.06	220.55
788.38	220.40
788.71	220.36
789.03	220.48
789.35	220.64
789.67	220.31
789.99	220.69
790.32	220.07
790.64	220.02
790.96	221.52
791.28	220.36
791.61	220.29
791.93	220.40
792.25	220.57
792.57	222.17
792.89	221.74
793.21	221.76
793.54	221.45
793.86	221.14
794.18	221.17
794.50	220.71
794.82	220.57
795.14	220.79
795.47	220.86
795.79	220.57
796.11	220.14
796.43	220.05
796.75	220.05
797.07	220.26
797.39	220.05
797.71	218.62
798.04	219.07
798.36	219.14
798.68	218.90
799.00	218.93
799.32	217.76
799.64	218.17
799.96	218.24
800.28	218.45
800.60	218.48
800.92	218.29
801.24	218.12
801.56	218.29
801.89	218.43
802.21	218.67
802.53	218.29
802.85	218.67
803.17	219.71
803.49	218.95
803.81	218.93
804.13	218.79
804.45	218.45
804.77	218.31
805.09	218.43
805.41	218.33
805.73	218.07
806.05	217.62
806.37	217.62
806.69	217.31
807.01	217.17
807.33	217.21
807.65	216.57
807.97	217.48
808.28	217.24
808.60	216.79
808.92	216.17
809.24	217.52
809.56	217.19
809.88	216.24
810.20	216.40
810.52	216.74
810.84	216.45
811.16	216.36
811.48	216.19
811.80	216.76
812.12	216.62
812.43	216.88
812.75	217.26
813.07	217.05
813.39	217.14
813.71	217.00
814.03	216.76
814.35	217.02
814.67	216.19
814.98	215.88
815.30	215.81
815.62	215.81
815.94	214.45
816.26	214.57
816.58	214.14
816.89	214.60
817.21	214.14
817.53	214.24
817.85	214.21
818.17	214.17
818.48	213.26
818.80	213.81
819.12	213.60
819.44	213.07
819.76	212.88
820.07	212.83
820.39	213.05
820.71	213.10
821.03	213.12
821.34	213.24
821.66	213.83
821.98	214.26
822.30	214.17
822.61	215.60
822.93	215.38
823.25	215.52
823.57	215.31
823.88	215.64
824.20	215.79
824.52	216.38
824.83	216.52
825.15	216.67
825.47	216.71
825.79	216.79
826.10	216.69
826.42	216.50
826.74	216.64
827.05	216.12
827.37	216.33
827.69	216.17
828.00	216.10
828.32	215.67
828.64	215.60
828.95	216.67
829.27	215.98
829.58	215.95
829.90	216.38
830.22	216.55
830.53	216.10
830.85	215.74
831.17	215.10
831.48	215.10
831.80	215.17
832.11	214.64
832.43	214.40
832.75	214.45
833.06	215.76
833.38	215.21
833.69	215.26
834.01	215.31
834.32	215.38
834.64	215.14
834.96	215.05
835.27	214.83
835.59	214.31
835.90	213.98
836.22	213.90
836.53	213.50
836.85	213.14
837.16	215.12
837.48	215.14
837.79	215.76
838.11	215.93
838.42	215.76
838.74	215.95
839.05	215.81
839.37	215.88
839.68	214.55
840.00	214.64
840.31	215.02
840.63	214.67
840.94	214.57
841.26	214.48
841.57	214.52
841.88	214.52
842.20	214.19
842.51	213.98
842.83	213.74
843.14	215.33
843.46	215.48
843.77	214.43
844.08	214.48
844.40	214.02
844.71	213.43
845.03	213.24
845.34	213.19
845.65	213.12
845.97	212.86
846.28	212.88
846.60	213.00
846.91	212.74
847.22	212.71
847.54	213.10
847.85	213.14
848.16	213.38
848.48	213.19
848.79	213.98
849.10	214.19
849.42	214.43
849.73	212.81
850.04	212.69
850.36	212.02
850.67	212.52
850.98	212.36
851.30	212.67
851.61	212.71
851.92	212.74
852.23	213.36
852.55	213.64
852.86	213.98
853.17	214.10
853.49	214.55
853.80	215.14
854.11	215.17
854.42	215.69
854.74	215.36
855.05	215.40
855.36	214.19
855.67	214.17
855.99	214.29
856.30	216.57
856.61	216.55
856.92	216.52
857.23	216.38
857.55	216.19
857.86	216.07
858.17	216.50
858.48	216.07
858.79	215.71
859.11	215.76
859.42	215.48
859.73	215.07
860.04	214.81
860.35	214.12
860.66	213.60
860.98	213.29
861.29	213.38
861.60	213.02
861.91	213.69
862.22	213.55
862.53	213.17
862.84	210.86
863.16	211.52
863.47	211.40
863.78	211.12
864.09	211.26
864.40	211.38
864.71	211.29
865.02	211.67
865.33	211.31
865.64	211.31
865.95	211.29
866.27	212.67
866.58	212.64
866.89	212.81
867.20	212.83
867.51	212.52
867.82	212.38
868.13	213.38
868.44	212.98
868.75	213.36
869.06	213.79
869.37	213.83
869.68	212.93
869.99	213.33
870.30	213.50
870.61	213.88
870.92	213.60
871.23	213.55
871.54	213.83
871.85	214.50
872.16	214.50
872.47	214.38
872.78	213.24
873.09	213.29
873.40	213.29
873.71	213.48
874.02	213.71
874.33	213.67
874.64	213.17
874.95	213.50
875.26	212.98
875.56	212.74
875.87	212.71
876.18	212.86
876.49	214.64
876.80	214.62
877.11	214.14
877.42	214.33
877.73	214.31
878.04	213.74
878.35	213.57
878.66	213.74
878.96	213.90
879.27	213.95
879.58	213.79
879.89	213.74
880.20	214.19
880.51	213.98
880.82	214.14
881.12	214.14
881.43	213.71
881.74	213.43
882.05	213.29
882.36	213.43
882.67	213.33
882.97	211.00
883.28	210.71
883.59	210.83
883.90	211.02
884.21	211.19
884.51	211.33
884.82	211.10
885.13	210.98
885.44	210.83
885.74	210.90
886.05	210.95
886.36	210.90
886.67	210.33
886.98	211.24
887.28	211.36
887.59	211.26
887.90	211.55
888.20	211.67
888.51	212.17
888.82	211.86
889.13	212.07
889.43	213.71
889.74	213.57
890.05	213.57
890.35	213.29
890.66	212.86
890.97	212.67
891.28	212.48
891.58	212.60
891.89	212.64
892.20	212.29
892.50	212.05
892.81	212.05
893.12	211.95
893.42	211.21
893.73	211.33
894.04	211.57
894.34	211.52
894.65	211.69
894.95	211.52
895.26	211.81
895.57	212.67
895.87	210.93
896.18	211.33
896.48	211.36
896.79	211.50
897.10	211.83
897.40	212.00
897.71	212.26
898.01	212.12
898.32	212.38
898.63	212.29
898.93	212.48
899.24	212.40
899.54	212.24
899.85	212.12
900.15	212.17
900.46	211.95
900.76	212.36
901.07	212.24
901.38	211.98
901.68	212.02
901.99	211.05
902.29	211.38
902.60	211.38
902.90	211.07
903.21	210.93
903.51	210.81
903.82	211.07
904.12	211.19
904.43	211.33
904.73	211.21
905.03	211.50
905.34	213.50
905.64	213.60
905.95	213.79
906.25	213.81
906.56	213.60
906.86	213.52
907.17	213.00
907.47	213.02
907.77	213.02
908.08	212.52
908.38	212.64
908.69	212.83
908.99	213.07
909.30	213.43
909.60	213.64
909.90	213.93
910.21	213.38
910.51	212.88
910.81	212.88
911.12	212.90
911.42	212.90
911.73	210.76
912.03	210.83
912.33	211.43
912.64	211.26
912.94	210.98
913.24	210.83
913.55	211.00
913.85	211.02
914.15	211.36
914.46	211.67
914.76	211.33
915.06	210.95
915.37	210.69
915.67	210.57
915.97	210.45
916.27	210.00
916.58	210.19
916.88	210.21
917.18	209.88
917.49	211.12
917.79	210.83
918.09	211.14
918.39	211.69
918.70	211.29
919.00	211.45
919.30	212.55
919.60	212.38
919.91	212.14
920.21	212.17
920.51	211.81
920.81	211.83
921.12	212.24
921.42	212.24
921.72	212.21
922.02	212.12
922.32	212.60
922.63	212.64
922.93	213.67
923.23	213.76
923.53	213.64
923.83	212.64
924.13	213.12
924.44	212.95
924.74	212.95
925.04	213.60
925.34	213.62
925.64	212.57
925.94	213.05
926.24	214.14
926.55	213.95
926.85	214.17
927.15	214.14
927.45	214.24
927.75	214.24
928.05	214.36
928.35	214.31
928.65	214.50
928.95	214.71
929.26	213.90
929.56	214.48
929.86	214.71
930.16	214.14
930.46	213.86
930.76	214.02
931.06	213.43
931.36	212.74
931.66	213.14
931.96	213.60
932.26	213.36
932.56	212.62
932.86	212.86
933.16	212.93
933.46	213.02
933.76	212.74
934.06	213.31
934.36	213.79
934.66	213.95
934.96	213.57
935.26	213.71
935.56	214.07
935.86	213.50
936.16	213.50
936.46	213.43
936.76	213.57
937.06	213.33
937.36	213.57
937.66	213.71
937.96	213.36
938.26	212.98
938.56	212.79
938.86	212.90
939.16	213.48
939.46	213.64
939.76	213.31
940.06	213.29
940.35	212.76
940.65	211.86
940.95	211.95
941.25	211.45
941.55	211.10
941.85	211.02
942.15	211.52
942.45	211.90
942.75	212.02
943.04	211.90
943.34	212.33
943.64	211.88
943.94	211.40
944.24	211.45
944.54	211.50
944.84	211.55
945.13	211.07
945.43	210.62
945.73	210.40
946.03	210.55
946.33	210.52
946.62	210.31
946.92	210.24
947.22	210.33
947.52	210.60
947.82	210.95
948.11	210.67
948.41	210.26
948.71	209.69
949.01	209.81
949.31	209.74
949.60	209.52
949.90	210.07
950.20	210.10
950.50	210.14
950.79	210.07
951.09	210.33
951.39	210.48
951.69	209.98
951.98	210.43
952.28	210.55
952.58	210.45
952.87	210.55
953.17	211.02
953.47	210.74
953.76	210.52
954.06	210.12
954.36	209.79
954.66	209.60
954.95	210.12
955.25	210.38
955.55	210.57
955.84	210.33
956.14	210.33
956.44	210.57
956.73	210.33
957.03	210.43
957.32	210.45
957.62	210.38
957.92	211.05
958.21	210.88
958.51	213.26
958.81	213.50
959.10	213.98
959.40	214.48
959.69	214.79
959.99	215.33
960.29	215.38
960.58	215.57
960.88	216.50
961.17	216.17
961.47	216.00
961.76	215.76
962.06	216.21
962.36	216.05
962.65	216.07
962.95	216.19
963.24	216.05
963.54	216.05
963.83	216.21
964.13	216.00
964.42	215.33
964.72	213.67
965.01	213.69
965.31	213.36
965.60	212.79
965.90	213.98
966.19	213.38
966.49	213.33
966.78	213.00
967.08	212.79
967.37	212.88
967.67	212.57
967.96	212.98
968.26	212.81
968.55	213.10
968.85	213.19
969.14	213.07
969.43	212.98
969.73	212.98
970.02	212.74
970.32	212.45
970.61	212.33
970.91	211.71
971.20	211.43
971.49	211.31
971.79	211.62
972.08	209.86
972.38	210.12
972.67	210.07
972.96	210.50
973.26	210.10
973.55	210.79
973.85	210.86
974.14	210.33
974.43	210.57
974.73	210.07
975.02	209.62
975.31	209.55
975.61	209.48
975.90	209.14
976.19	209.05
976.49	209.29
976.78	209.55
977.07	209.50
977.37	209.69
977.66	209.79
977.95	209.26
978.24	209.60
978.54	210.02
978.83	209.86
979.12	209.81
979.42	209.76
979.71	209.26
980.00	209.40
980.29	209.71
980.59	208.95
980.88	209.60
981.17	209.79
981.46	210.05
981.76	210.29
982.05	210.83
982.34	210.83
982.63	210.93
982.93	210.86
983.22	211.52
983.51	211.36
983.80	211.60
984.09	211.90
984.39	211.71
984.68	211.62
984.97	211.76
985.26	211.55
985.55	211.79
985.85	211.36
986.14	211.60
986.43	211.76
986.72	211.83
987.01	211.10
987.30	211.24
987.59	211.14
987.89	211.12
988.18	210.57
988.47	210.36
988.76	210.14
989.05	210.05
989.34	209.55
989.63	210.14
989.92	209.81
990.22	209.45
990.51	209.60
990.80	209.26
991.09	209.57
991.38	209.86
991.67	209.55
991.96	209.38
992.25	209.43
992.54	208.98
992.83	209.07
993.12	209.14
993.41	209.31
993.70	210.02
993.99	210.36
994.28	210.62
994.58	211.17
994.87	210.98
995.16	211.07
995.45	210.74
995.74	210.14
996.03	210.52
996.32	211.14
996.61	211.38
996.90	211.19
997.19	211.05
997.48	211.14
997.77	210.95
998.06	211.07
998.34	210.86
998.63	211.14
998.92	211.05
999.21	211.48
999.50	211.43
999.79	210.74
1000.08	210.50
1000.37	210.62
1000.66	210.26
1000.95	210.90
1001.24	211.02
1001.53	211.38
1001.82	211.38
1002.11	210.95
1002.40	210.90
1002.68	211.60
1002.97	213.21
1003.26	212.98
1003.55	212.67
1003.84	212.86
1004.13	213.55
1004.42	213.74
1004.71	213.40
1004.99	213.33
1005.28	213.86
1005.57	213.55
1005.86	213.21
1006.15	213.21
1006.44	212.74
1006.72	213.07
1007.01	212.81
1007.30	212.83
1007.59	212.64
1007.88	212.67
1008.17	212.71
1008.45	212.31
1008.74	211.24
1009.03	210.12
1009.32	210.19
1009.60	210.24
1009.89	210.21
1010.18	209.60
1010.47	209.19
1010.76	209.31
1011.04	209.45
1011.33	209.36
1011.62	209.64
1011.91	209.98
1012.19	210.00
1012.48	210.21
1012.77	210.26
1013.05	211.07
1013.34	211.05
1013.63	211.12
1013.92	211.24
1014.20	211.24
1014.49	211.48
1014.78	211.55
1015.06	210.90
1015.35	210.76
1015.64	211.05
1015.92	211.19
1016.21	211.26
1016.50	211.29
1016.78	211.71
1017.07	211.86
1017.36	211.45
1017.64	211.26
1017.93	211.57
1018.22	211.40
1018.50	211.31
1018.79	211.00
1019.08	210.00
1019.36	210.07
1019.65	209.81
1019.93	210.17
1020.22	210.55
1020.51	211.48
1020.79	211.38
1021.08	207.00
1021.36	206.00
1021.65	208.50
1021.94	209.00
1022.22	211.00
1022.51	206.50
1022.79	217.50
1023.08	216.50
1023.36	235.00
1023.65	205.00
>>>>>End Processed Spectral Data<<<<<
