SpectraSuite Data File
++++++++++++++++++++++++++++++++++++
Date: Tue Apr 02 18:42:26 EDT 2013
User: group
Dark Spectrum Present: No
Reference Spectrum Present: No
Number of Sampled Component Spectra: 1
Spectrometers: USB2E7196
Integration Time (usec): 580000 (USB2E7196)
Spectra Averaged: 2 (USB2E7196)
Boxcar Smoothing: 10 (USB2E7196)
Correct for Electrical Dark: No (USB2E7196)
Strobe/Lamp Enabled: No (USB2E7196)
Correct for Detector Non-linearity: No (USB2E7196)
Correct for Stray Light: No (USB2E7196)
Number of Pixels in Processed Spectrum: 2048
>>>>>Begin Processed Spectral Data<<<<<
339.09	0.00
339.48	193.50
339.86	196.50
340.24	198.50
340.63	196.00
341.01	233.00
341.39	202.00
341.78	207.00
342.16	213.00
342.54	206.50
342.93	198.26
343.31	207.95
343.69	208.57
344.07	208.95
344.46	209.69
344.84	210.26
345.22	208.93
345.60	209.43
345.99	209.60
346.37	209.45
346.75	209.57
347.13	209.50
347.52	209.79
347.90	210.52
348.28	210.55
348.66	211.33
349.05	210.79
349.43	210.93
349.81	211.21
350.19	211.29
350.57	211.40
350.96	211.83
351.34	212.26
351.72	212.38
352.10	212.50
352.48	212.07
352.87	212.19
353.25	212.43
353.63	212.12
354.01	212.00
354.39	212.21
354.77	212.31
355.15	212.64
355.54	212.31
355.92	211.50
356.30	211.40
356.68	212.40
357.06	212.40
357.44	211.95
357.82	211.74
358.20	212.64
358.58	212.52
358.97	212.57
359.35	212.76
359.73	213.02
360.11	213.21
360.49	213.45
360.87	213.19
361.25	213.40
361.63	214.17
362.01	214.33
362.39	213.81
362.77	213.81
363.15	213.86
363.53	213.81
363.91	214.14
364.29	213.98
364.67	211.83
365.05	211.90
365.43	212.43
365.81	212.60
366.19	212.88
366.57	213.67
366.95	213.52
367.33	213.31
367.71	213.33
368.09	213.52
368.47	213.48
368.85	213.50
369.23	213.62
369.61	212.95
369.99	213.55
370.37	214.07
370.75	214.98
371.13	214.60
371.51	214.33
371.89	214.57
372.27	214.76
372.65	214.93
373.03	215.17
373.41	214.90
373.78	214.88
374.16	213.79
374.54	213.12
374.92	212.88
375.30	212.76
375.68	212.36
376.06	212.40
376.44	212.45
376.82	212.60
377.19	212.64
377.57	212.48
377.95	212.02
378.33	211.88
378.71	210.88
379.09	211.21
379.47	211.79
379.84	211.45
380.22	211.38
380.60	211.14
380.98	210.98
381.36	210.95
381.73	210.62
382.11	210.95
382.49	211.05
382.87	210.93
383.25	210.71
383.62	213.12
384.00	212.83
384.38	212.81
384.76	213.36
385.13	214.40
385.51	214.57
385.89	214.24
386.27	214.48
386.64	214.76
387.02	214.57
387.40	214.26
387.78	214.55
388.15	214.64
388.53	214.71
388.91	214.83
389.29	214.79
389.66	215.36
390.04	215.17
390.42	215.48
390.79	215.81
391.17	216.33
391.55	213.98
391.92	213.79
392.30	214.02
392.68	213.45
393.05	213.07
393.43	213.00
393.81	213.38
394.18	212.90
394.56	213.00
394.94	213.55
395.31	213.31
395.69	213.83
396.06	213.98
396.44	214.26
396.82	213.90
397.19	215.12
397.57	214.79
397.95	215.14
398.32	214.71
398.70	214.86
399.07	215.26
399.45	215.43
399.82	215.86
400.20	215.76
400.58	215.88
400.95	214.98
401.33	215.64
401.70	216.95
402.08	217.10
402.45	217.19
402.83	217.52
403.20	217.98
403.58	217.83
403.95	218.67
404.33	219.10
404.71	219.64
405.08	220.86
405.46	221.26
405.83	221.64
406.21	221.98
406.58	222.50
406.96	222.45
407.33	223.14
407.70	223.62
408.08	225.71
408.45	226.79
408.83	227.98
409.20	228.57
409.58	227.90
409.95	229.36
410.33	230.21
410.70	230.50
411.08	231.55
411.45	232.64
411.82	233.38
412.20	234.83
412.57	237.36
412.95	236.74
413.32	238.50
413.69	239.83
414.07	241.31
414.44	243.05
414.82	245.02
415.19	247.48
415.56	249.71
415.94	251.10
416.31	253.95
416.68	256.69
417.06	259.74
417.43	263.57
417.81	266.90
418.18	270.57
418.55	274.67
418.93	278.90
419.30	283.05
419.67	287.26
420.04	291.90
420.42	295.90
420.79	303.60
421.16	309.12
421.54	316.24
421.91	322.88
422.28	328.83
422.66	335.67
423.03	343.43
423.40	350.76
423.77	358.26
424.15	365.36
424.52	373.19
424.89	382.07
425.26	389.90
425.64	397.38
426.01	406.02
426.38	414.74
426.75	424.26
427.13	433.48
427.50	443.52
427.87	453.60
428.24	463.55
428.61	472.14
428.99	483.67
429.36	493.93
429.73	505.45
430.10	517.21
430.47	529.05
430.85	539.74
431.22	552.36
431.59	566.60
431.96	579.31
432.33	593.43
432.70	607.10
433.08	623.26
433.45	639.14
433.82	654.24
434.19	671.29
434.56	688.24
434.93	704.05
435.30	720.74
435.68	737.88
436.05	755.81
436.42	772.60
436.79	788.62
437.16	806.38
437.53	823.83
437.90	841.64
438.27	859.62
438.64	878.21
439.01	895.33
439.38	909.50
439.75	924.98
440.13	942.17
440.50	958.00
440.87	971.02
441.24	983.83
441.61	998.98
441.98	1010.31
442.35	1022.90
442.72	1036.29
443.09	1049.17
443.46	1057.29
443.83	1062.21
444.20	1067.10
444.57	1072.83
444.94	1075.71
445.31	1079.74
445.68	1086.24
446.05	1087.64
446.42	1085.81
446.79	1084.33
447.16	1082.76
447.53	1081.64
447.90	1074.90
448.27	1068.74
448.64	1060.26
449.01	1053.62
449.37	1041.93
449.74	1030.07
450.11	1017.69
450.48	1002.64
450.85	986.24
451.22	973.43
451.59	961.10
451.96	949.12
452.33	933.50
452.70	919.76
453.07	902.52
453.43	882.26
453.80	865.76
454.17	850.29
454.54	834.76
454.91	818.24
455.28	801.60
455.65	787.17
456.02	775.31
456.38	761.69
456.75	747.24
457.12	734.10
457.49	721.71
457.86	707.81
458.23	697.50
458.59	685.90
458.96	674.38
459.33	663.21
459.70	652.64
460.07	644.17
460.43	633.57
460.80	624.83
461.17	617.48
461.54	609.31
461.91	600.83
462.27	592.43
462.64	585.12
463.01	577.88
463.38	570.76
463.74	560.02
464.11	553.81
464.48	547.83
464.85	541.31
465.21	537.02
465.58	532.05
465.95	525.55
466.32	520.31
466.68	514.57
467.05	509.88
467.42	505.07
467.78	499.98
468.15	495.67
468.52	492.00
468.88	486.07
469.25	480.83
469.62	477.69
469.98	473.69
470.35	470.00
470.72	466.12
471.08	461.43
471.45	458.62
471.82	456.00
472.18	452.00
472.55	449.52
472.92	445.45
473.28	442.24
473.65	439.79
474.02	437.19
474.38	435.14
474.75	433.43
475.11	430.79
475.48	428.81
475.85	426.62
476.21	424.74
476.58	423.90
476.94	422.81
477.31	421.45
477.67	420.21
478.04	419.07
478.41	418.71
478.77	420.02
479.14	418.64
479.50	417.62
479.87	417.31
480.23	416.83
480.60	416.52
480.96	416.12
481.33	416.79
481.69	416.83
482.06	417.14
482.42	417.55
482.79	418.21
483.15	418.79
483.52	419.95
483.88	420.36
484.25	420.83
484.61	421.69
484.98	422.29
485.34	424.33
485.71	426.19
486.07	426.95
486.44	426.67
486.80	427.95
487.17	429.33
487.53	431.64
487.90	433.98
488.26	437.05
488.62	440.21
488.99	441.98
489.35	444.40
489.72	446.64
490.08	449.55
490.44	451.74
490.81	454.76
491.17	457.43
491.54	460.64
491.90	464.43
492.26	468.26
492.63	472.19
492.99	475.50
493.36	479.40
493.72	483.86
494.08	488.07
494.45	493.21
494.81	498.64
495.17	503.29
495.54	508.38
495.90	512.74
496.26	517.52
496.63	522.81
496.99	528.14
497.35	534.12
497.72	540.07
498.08	546.14
498.44	552.10
498.80	558.43
499.17	564.83
499.53	571.05
499.89	577.57
500.26	583.90
500.62	590.90
500.98	598.31
501.34	605.21
501.71	613.00
502.07	619.88
502.43	626.50
502.79	633.52
503.16	640.69
503.52	647.88
503.88	654.55
504.24	662.24
504.60	670.43
504.97	678.29
505.33	685.14
505.69	694.14
506.05	702.45
506.41	710.79
506.78	718.17
507.14	725.69
507.50	733.62
507.86	742.10
508.22	749.79
508.59	756.81
508.95	764.95
509.31	773.57
509.67	781.76
510.03	789.62
510.39	798.36
510.75	806.00
511.12	813.48
511.48	821.62
511.84	829.24
512.20	836.88
512.56	844.38
512.92	852.19
513.28	859.33
513.64	866.60
514.00	874.00
514.37	881.50
514.73	889.05
515.09	896.31
515.45	903.26
515.81	910.12
516.17	917.52
516.53	924.52
516.89	929.71
517.25	936.17
517.61	943.10
517.97	948.71
518.33	954.93
518.69	962.33
519.05	969.19
519.41	975.48
519.77	982.64
520.13	988.74
520.49	994.69
520.85	1000.10
521.21	1006.81
521.57	1012.67
521.93	1018.14
522.29	1023.48
522.65	1028.88
523.01	1034.76
523.37	1039.83
523.73	1044.74
524.09	1049.67
524.45	1054.55
524.81	1059.43
525.17	1064.62
525.53	1069.48
525.89	1074.17
526.25	1078.76
526.61	1081.90
526.97	1085.95
527.33	1089.26
527.68	1094.69
528.04	1099.02
528.40	1103.55
528.76	1107.21
529.12	1111.19
529.48	1116.38
529.84	1120.52
530.20	1124.86
530.56	1129.10
530.91	1134.05
531.27	1138.36
531.63	1142.88
531.99	1146.83
532.35	1150.81
532.71	1154.50
533.07	1159.12
533.42	1165.67
533.78	1169.88
534.14	1175.55
534.50	1179.21
534.86	1184.57
535.21	1188.12
535.57	1193.07
535.93	1197.24
536.29	1202.17
536.65	1206.79
537.00	1209.57
537.36	1213.62
537.72	1217.14
538.08	1220.98
538.44	1223.67
538.79	1227.60
539.15	1230.14
539.51	1234.76
539.87	1238.93
540.22	1242.57
540.58	1246.55
540.94	1248.57
541.29	1251.52
541.65	1253.76
542.01	1258.14
542.37	1260.33
542.72	1261.76
543.08	1264.29
543.44	1266.90
543.79	1267.95
544.15	1270.33
544.51	1274.07
544.87	1277.12
545.22	1280.38
545.58	1282.62
545.94	1285.81
546.29	1288.21
546.65	1291.86
547.01	1294.05
547.36	1296.67
547.72	1299.40
548.07	1301.24
548.43	1303.17
548.79	1305.10
549.14	1308.40
549.50	1311.40
549.86	1313.60
550.21	1317.45
550.57	1320.29
550.92	1322.93
551.28	1326.43
551.64	1329.62
551.99	1331.95
552.35	1334.90
552.70	1336.81
553.06	1340.05
553.41	1343.33
553.77	1348.38
554.13	1351.79
554.48	1356.50
554.84	1360.83
555.19	1364.90
555.55	1370.48
555.90	1374.38
556.26	1378.71
556.61	1381.88
556.97	1384.98
557.32	1389.12
557.68	1393.00
558.03	1397.00
558.39	1401.48
558.74	1405.62
559.10	1409.50
559.45	1413.95
559.81	1418.40
560.16	1423.26
560.52	1427.60
560.87	1432.60
561.23	1435.00
561.58	1440.52
561.94	1444.81
562.29	1448.52
562.64	1453.71
563.00	1456.69
563.35	1461.24
563.71	1466.76
564.06	1473.36
564.42	1478.79
564.77	1484.76
565.12	1491.12
565.48	1498.62
565.83	1504.48
566.19	1510.10
566.54	1515.55
566.89	1521.12
567.25	1526.90
567.60	1534.26
567.96	1541.07
568.31	1547.57
568.66	1554.52
569.02	1559.31
569.37	1564.31
569.72	1569.29
570.08	1573.02
570.43	1578.29
570.78	1584.52
571.14	1589.86
571.49	1594.05
571.84	1599.81
572.20	1604.69
572.55	1609.19
572.90	1611.17
573.26	1615.50
573.61	1619.83
573.96	1624.55
574.31	1629.52
574.67	1633.31
575.02	1635.64
575.37	1638.36
575.72	1641.14
576.08	1645.24
576.43	1648.10
576.78	1651.26
577.13	1655.19
577.49	1658.86
577.84	1663.67
578.19	1667.48
578.54	1671.24
578.90	1674.83
579.25	1677.43
579.60	1679.07
579.95	1681.48
580.30	1686.12
580.66	1690.17
581.01	1693.60
581.36	1696.52
581.71	1699.40
582.06	1703.45
582.42	1707.88
582.77	1711.24
583.12	1714.19
583.47	1716.45
583.82	1719.90
584.17	1722.38
584.53	1726.52
584.88	1729.38
585.23	1731.83
585.58	1733.95
585.93	1735.40
586.28	1738.02
586.63	1740.86
586.98	1744.48
587.34	1747.57
587.69	1748.90
588.04	1750.07
588.39	1751.98
588.74	1753.43
589.09	1754.76
589.44	1755.19
589.79	1756.50
590.14	1757.93
590.49	1759.17
590.84	1760.05
591.19	1761.64
591.54	1763.43
591.89	1764.48
592.25	1768.38
592.60	1768.76
592.95	1769.48
593.30	1771.55
593.65	1772.43
594.00	1772.31
594.35	1779.02
594.70	1779.55
595.05	1780.93
595.40	1781.07
595.75	1781.95
596.10	1783.21
596.45	1784.43
596.80	1785.48
597.15	1785.71
597.50	1786.02
597.85	1787.21
598.19	1787.21
598.54	1787.45
598.89	1788.33
599.24	1788.67
599.59	1786.48
599.94	1786.74
600.29	1786.69
600.64	1786.45
600.99	1786.02
601.34	1787.43
601.69	1782.10
602.04	1780.95
602.39	1780.14
602.74	1781.10
603.08	1780.02
603.43	1780.19
603.78	1779.55
604.13	1779.02
604.48	1778.79
604.83	1778.33
605.18	1777.67
605.53	1777.71
605.87	1776.50
606.22	1774.81
606.57	1772.21
606.92	1770.95
607.27	1769.62
607.62	1769.29
607.96	1768.74
608.31	1767.45
608.66	1765.10
609.01	1762.52
609.36	1761.36
609.70	1759.76
610.05	1756.62
610.40	1755.00
610.75	1751.76
611.10	1749.79
611.44	1747.21
611.79	1744.00
612.14	1741.71
612.49	1737.60
612.83	1734.17
613.18	1730.86
613.53	1728.07
613.88	1724.81
614.22	1721.81
614.57	1718.52
614.92	1714.50
615.27	1710.19
615.61	1706.31
615.96	1702.55
616.31	1698.64
616.65	1695.60
617.00	1691.31
617.35	1687.90
617.70	1684.24
618.04	1680.31
618.39	1676.12
618.74	1672.43
619.08	1668.62
619.43	1664.19
619.78	1660.74
620.12	1656.98
620.47	1653.95
620.82	1649.38
621.16	1644.50
621.51	1641.02
621.85	1635.60
622.20	1630.93
622.55	1626.05
622.89	1621.74
623.24	1618.62
623.59	1614.81
623.93	1609.45
624.28	1605.83
624.62	1603.57
624.97	1600.02
625.32	1595.95
625.66	1591.52
626.01	1586.88
626.35	1583.05
626.70	1579.07
627.04	1575.21
627.39	1571.60
627.73	1567.43
628.08	1563.64
628.43	1560.36
628.77	1555.29
629.12	1552.43
629.46	1547.76
629.81	1543.26
630.15	1538.64
630.50	1532.55
630.84	1526.98
631.19	1523.05
631.53	1516.93
631.88	1509.02
632.22	1502.24
632.57	1498.14
632.91	1493.26
633.26	1488.64
633.60	1482.81
633.95	1477.10
634.29	1470.90
634.64	1465.50
634.98	1459.76
635.32	1455.60
635.67	1451.02
636.01	1446.64
636.36	1441.12
636.70	1437.48
637.05	1432.69
637.39	1428.19
637.73	1423.74
638.08	1420.64
638.42	1415.07
638.77	1411.40
639.11	1406.48
639.45	1401.67
639.80	1395.24
640.14	1389.86
640.49	1384.55
640.83	1378.74
641.17	1373.67
641.52	1368.40
641.86	1362.45
642.20	1357.71
642.55	1351.12
642.89	1344.76
643.23	1338.05
643.58	1332.90
643.92	1325.36
644.26	1318.83
644.61	1312.95
644.95	1306.67
645.29	1298.76
645.64	1292.57
645.98	1286.45
646.32	1281.76
646.66	1274.90
647.01	1268.98
647.35	1262.83
647.69	1255.86
648.04	1250.50
648.38	1244.02
648.72	1237.88
649.06	1231.71
649.41	1224.31
649.75	1216.98
650.09	1210.83
650.43	1204.79
650.78	1197.55
651.12	1191.57
651.46	1185.21
651.80	1178.38
652.14	1172.29
652.49	1166.88
652.83	1160.64
653.17	1152.71
653.51	1144.95
653.85	1139.12
654.20	1131.95
654.54	1124.64
654.88	1118.43
655.22	1112.07
655.56	1104.95
655.90	1098.64
656.25	1092.29
656.59	1086.10
656.93	1079.71
657.27	1073.95
657.61	1066.83
657.95	1060.50
658.29	1053.64
658.64	1047.83
658.98	1041.48
659.32	1034.19
659.66	1026.79
660.00	1020.17
660.34	1014.74
660.68	1008.86
661.02	1002.31
661.36	995.79
661.70	989.81
662.05	983.45
662.39	976.79
662.73	971.71
663.07	966.50
663.41	960.05
663.75	953.62
664.09	948.50
664.43	941.88
664.77	936.24
665.11	929.79
665.45	923.95
665.79	918.07
666.13	912.43
666.47	907.31
666.81	902.02
667.15	897.05
667.49	890.90
667.83	886.48
668.17	880.86
668.51	876.07
668.85	870.64
669.19	865.79
669.53	860.14
669.87	854.02
670.21	848.19
670.55	842.29
670.89	837.79
671.23	831.90
671.57	826.74
671.91	821.36
672.25	816.38
672.58	812.40
672.92	806.62
673.26	800.90
673.60	795.50
673.94	790.40
674.28	784.79
674.62	780.69
674.96	774.60
675.30	770.07
675.64	765.14
675.97	760.24
676.31	755.02
676.65	750.02
676.99	745.95
677.33	741.17
677.67	736.88
678.01	731.48
678.34	726.98
678.68	722.38
679.02	717.31
679.36	712.67
679.70	706.88
680.04	702.40
680.37	697.45
680.71	692.50
681.05	687.90
681.39	683.52
681.73	678.21
682.06	673.74
682.40	669.52
682.74	665.29
683.08	661.02
683.42	655.98
683.75	652.00
684.09	647.17
684.43	642.29
684.77	637.57
685.10	632.71
685.44	628.52
685.78	623.76
686.12	619.95
686.45	615.33
686.79	610.93
687.13	607.10
687.46	603.36
687.80	599.60
688.14	595.52
688.48	591.12
688.81	587.40
689.15	583.71
689.49	579.40
689.82	574.79
690.16	570.74
690.50	566.90
690.83	562.50
691.17	557.55
691.51	553.29
691.84	549.67
692.18	546.14
692.52	542.02
692.85	538.69
693.19	535.52
693.52	531.88
693.86	528.24
694.20	524.21
694.53	520.83
694.87	517.00
695.21	512.98
695.54	509.38
695.88	505.29
696.21	500.83
696.55	497.26
696.88	494.02
697.22	490.36
697.56	487.17
697.89	483.83
698.23	481.40
698.56	478.36
698.90	475.12
699.23	471.60
699.57	468.45
699.90	464.81
700.24	461.00
700.58	457.69
700.91	455.00
701.25	453.69
701.58	451.00
701.92	448.36
702.25	445.45
702.59	442.50
702.92	439.69
703.26	437.36
703.59	434.52
703.93	433.60
704.26	431.52
704.60	429.07
704.93	426.21
705.26	423.14
705.60	421.17
705.93	418.14
706.27	416.24
706.60	414.21
706.94	412.36
707.27	409.86
707.61	407.57
707.94	405.36
708.27	401.21
708.61	398.31
708.94	395.95
709.28	394.14
709.61	391.81
709.94	389.98
710.28	387.67
710.61	385.29
710.95	381.19
711.28	380.14
711.61	377.74
711.95	375.98
712.28	374.14
712.61	371.62
712.95	370.74
713.28	369.45
713.61	367.33
713.95	365.05
714.28	363.05
714.61	361.26
714.95	359.02
715.28	357.31
715.61	355.38
715.95	353.74
716.28	351.50
716.61	349.95
716.95	347.83
717.28	345.81
717.61	344.36
717.94	342.60
718.28	339.33
718.61	337.81
718.94	336.10
719.27	334.62
719.61	333.10
719.94	331.05
720.27	328.64
720.60	326.93
720.94	325.48
721.27	324.33
721.60	323.26
721.93	321.83
722.27	320.88
722.60	319.88
722.93	318.02
723.26	316.90
723.59	315.43
723.93	314.57
724.26	314.07
724.59	312.62
724.92	311.67
725.25	311.07
725.59	309.74
725.92	308.76
726.25	307.57
726.58	306.50
726.91	305.24
727.24	304.38
727.57	303.33
727.91	301.98
728.24	301.10
728.57	299.74
728.90	299.05
729.23	297.50
729.56	297.29
729.89	296.50
730.22	295.31
730.55	294.19
730.89	293.12
731.22	291.55
731.55	290.50
731.88	289.64
732.21	288.33
732.54	287.55
732.87	286.40
733.20	285.76
733.53	285.10
733.86	284.62
734.19	283.55
734.52	282.90
734.85	283.45
735.18	282.48
735.51	282.38
735.84	281.69
736.17	281.71
736.50	280.00
736.83	281.64
737.16	281.10
737.49	280.52
737.82	279.52
738.15	279.40
738.48	279.02
738.81	278.17
739.14	277.12
739.47	276.31
739.80	275.76
740.13	274.81
740.46	273.88
740.79	272.88
741.12	272.07
741.45	271.14
741.78	269.79
742.11	269.52
742.44	268.48
742.77	268.14
743.10	266.98
743.43	266.17
743.75	263.52
744.08	265.60
744.41	264.83
744.74	264.07
745.07	263.05
745.40	262.60
745.73	262.86
746.06	262.40
746.39	262.02
746.71	261.29
747.04	260.83
747.37	260.10
747.70	259.81
748.03	259.19
748.36	258.98
748.68	258.33
749.01	257.31
749.34	256.71
749.67	255.79
750.00	255.69
750.33	256.76
750.65	256.69
750.98	253.76
751.31	253.29
751.64	253.10
751.97	254.00
752.29	253.55
752.62	252.38
752.95	251.88
753.28	251.12
753.60	250.95
753.93	251.10
754.26	250.76
754.59	249.90
754.91	249.69
755.24	249.05
755.57	248.19
755.90	247.67
756.22	246.88
756.55	246.14
756.88	245.17
757.20	243.55
757.53	242.19
757.86	241.57
758.19	241.36
758.51	241.02
758.84	239.29
759.17	238.57
759.49	238.24
759.82	238.93
760.15	238.98
760.47	238.24
760.80	237.21
761.13	237.38
761.45	236.98
761.78	236.55
762.11	236.19
762.43	235.88
762.76	235.43
763.08	235.40
763.41	235.48
763.74	235.50
764.06	235.07
764.39	235.14
764.71	234.95
765.04	234.62
765.37	234.14
765.69	233.83
766.02	233.98
766.34	233.60
766.67	232.64
767.00	232.74
767.32	233.74
767.65	234.60
767.97	234.21
768.30	234.24
768.62	233.81
768.95	233.62
769.27	233.52
769.60	233.93
769.92	233.60
770.25	233.19
770.57	232.83
770.90	232.79
771.22	232.29
771.55	232.02
771.87	231.86
772.20	231.52
772.52	232.93
772.85	234.95
773.17	234.64
773.50	234.24
773.82	233.55
774.15	232.50
774.47	230.95
774.80	230.45
775.12	230.14
775.45	230.17
775.77	229.98
776.09	230.00
776.42	229.69
776.74	230.24
777.07	229.69
777.39	229.64
777.72	229.12
778.04	229.21
778.36	229.05
778.69	229.10
779.01	229.48
779.33	227.50
779.66	225.17
779.98	224.79
780.31	224.52
780.63	225.31
780.95	225.33
781.28	225.29
781.60	225.07
781.92	224.88
782.25	224.64
782.57	224.60
782.89	224.26
783.22	223.88
783.54	223.10
783.86	223.26
784.19	222.50
784.51	223.14
784.83	222.71
785.16	222.52
785.48	222.40
785.80	222.10
786.12	222.48
786.45	222.38
786.77	222.64
787.09	222.43
787.42	221.69
787.74	221.74
788.06	221.67
788.38	221.40
788.71	221.33
789.03	221.33
789.35	221.38
789.67	221.12
789.99	221.24
790.32	220.86
790.64	221.12
790.96	222.98
791.28	222.17
791.61	222.36
791.93	222.45
792.25	222.36
792.57	223.64
792.89	223.17
793.21	223.19
793.54	222.98
793.86	222.83
794.18	222.74
794.50	222.31
794.82	222.48
795.14	222.90
795.47	223.05
795.79	223.07
796.11	222.64
796.43	222.29
796.75	222.02
797.07	222.26
797.39	221.86
797.71	220.24
798.04	220.14
798.36	219.95
798.68	219.86
799.00	219.95
799.32	218.64
799.64	218.93
799.96	218.64
800.28	219.00
800.60	218.95
800.92	218.98
801.24	218.57
801.56	218.55
801.89	218.21
802.21	218.36
802.53	217.98
802.85	218.19
803.17	219.21
803.49	218.93
803.81	218.74
804.13	218.90
804.45	218.81
804.77	219.05
805.09	218.98
805.41	218.64
805.73	218.12
806.05	217.95
806.37	217.83
806.69	217.76
807.01	217.38
807.33	217.48
807.65	216.86
807.97	218.14
808.28	218.02
808.60	217.93
808.92	217.69
809.24	218.95
809.56	218.71
809.88	218.02
810.20	218.17
810.52	218.36
810.84	218.00
811.16	217.98
811.48	217.69
811.80	218.57
812.12	218.57
812.43	218.79
812.75	218.83
813.07	218.60
813.39	218.43
813.71	218.10
814.03	218.00
814.35	218.17
814.67	217.19
814.98	216.95
815.30	216.76
815.62	216.38
815.94	215.02
816.26	215.14
816.58	214.67
816.89	214.88
817.21	214.55
817.53	214.67
817.85	214.55
818.17	214.57
818.48	213.67
818.80	214.07
819.12	213.74
819.44	213.21
819.76	212.98
820.07	213.24
820.39	213.43
820.71	213.55
821.03	213.62
821.34	213.43
821.66	213.83
821.98	214.24
822.30	214.24
822.61	215.45
822.93	215.48
823.25	215.52
823.57	215.14
823.88	215.31
824.20	215.31
824.52	215.50
824.83	215.45
825.15	215.24
825.47	215.21
825.79	215.64
826.10	215.64
826.42	215.90
826.74	216.19
827.05	215.98
827.37	216.07
827.69	215.67
828.00	215.79
828.32	215.60
828.64	215.17
828.95	216.12
829.27	215.57
829.58	215.52
829.90	215.88
830.22	216.33
830.53	216.05
830.85	215.81
831.17	215.31
831.48	215.40
831.80	215.36
832.11	215.12
832.43	214.90
832.75	215.10
833.06	216.24
833.38	215.29
833.69	215.36
834.01	215.48
834.32	215.55
834.64	215.38
834.96	215.36
835.27	215.43
835.59	214.90
835.90	214.29
836.22	213.95
836.53	213.71
836.85	213.31
837.16	215.26
837.48	215.36
837.79	216.17
838.11	216.07
838.42	216.21
838.74	216.38
839.05	216.17
839.37	216.17
839.68	214.62
840.00	214.67
840.31	214.90
840.63	214.40
840.94	214.26
841.26	214.07
841.57	213.95
841.88	214.26
842.20	213.79
842.51	213.76
842.83	213.90
843.14	215.57
843.46	215.55
843.77	214.60
844.08	214.50
844.40	213.86
844.71	213.90
845.03	213.62
845.34	213.38
845.65	213.40
845.97	213.24
846.28	213.45
846.60	213.71
846.91	213.31
847.22	213.43
847.54	213.64
847.85	213.88
848.16	213.79
848.48	213.45
848.79	214.29
849.10	214.60
849.42	214.62
849.73	212.79
850.04	212.83
850.36	212.05
850.67	212.33
850.98	212.52
851.30	212.60
851.61	212.48
851.92	212.38
852.23	212.90
852.55	212.93
852.86	213.05
853.17	213.21
853.49	213.76
853.80	214.19
854.11	214.62
854.42	214.71
854.74	214.67
855.05	214.76
855.36	213.67
855.67	213.74
855.99	213.83
856.30	216.29
856.61	216.17
856.92	216.24
857.23	216.14
857.55	215.81
857.86	215.55
858.17	216.12
858.48	215.98
858.79	215.67
859.11	215.98
859.42	215.79
859.73	215.40
860.04	215.36
860.35	214.79
860.66	214.05
860.98	213.81
861.29	213.98
861.60	213.62
861.91	214.24
862.22	213.71
862.53	213.26
862.84	210.60
863.16	210.95
863.47	210.62
863.78	210.55
864.09	210.64
864.40	211.05
864.71	210.98
865.02	211.24
865.33	210.86
865.64	210.26
865.95	210.31
866.27	211.74
866.58	211.38
866.89	211.67
867.20	211.86
867.51	211.83
867.82	211.45
868.13	212.29
868.44	211.76
868.75	212.26
869.06	212.62
869.37	213.19
869.68	212.55
869.99	213.10
870.30	213.24
870.61	213.40
870.92	212.88
871.23	212.55
871.54	212.83
871.85	213.43
872.16	214.10
872.47	213.86
872.78	212.60
873.09	212.93
873.40	212.64
873.71	212.69
874.02	212.67
874.33	212.67
874.64	212.24
874.95	212.76
875.26	212.36
875.56	212.17
875.87	211.76
876.18	212.02
876.49	214.02
876.80	213.71
877.11	213.40
877.42	213.55
877.73	213.69
878.04	213.36
878.35	213.21
878.66	212.98
878.96	213.05
879.27	212.98
879.58	212.67
879.89	212.60
880.20	213.29
880.51	213.17
880.82	213.31
881.12	213.29
881.43	213.00
881.74	212.74
882.05	212.71
882.36	213.10
882.67	213.12
882.97	210.74
883.28	210.76
883.59	210.64
883.90	210.90
884.21	211.24
884.51	211.05
884.82	210.64
885.13	210.50
885.44	210.74
885.74	210.90
886.05	210.83
886.36	210.95
886.67	210.10
886.98	211.24
887.28	211.31
887.59	211.38
887.90	211.26
888.20	211.29
888.51	211.79
888.82	211.24
889.13	211.43
889.43	212.98
889.74	212.81
890.05	212.86
890.35	212.52
890.66	212.38
890.97	212.48
891.28	212.43
891.58	212.69
891.89	212.38
892.20	212.00
892.50	212.17
892.81	212.10
893.12	212.05
893.42	211.26
893.73	211.33
894.04	211.21
894.34	211.36
894.65	211.19
894.95	210.79
895.26	211.14
895.57	211.95
895.87	210.40
896.18	210.74
896.48	210.98
896.79	211.12
897.10	211.19
897.40	211.38
897.71	211.93
898.01	211.67
898.32	212.10
898.63	212.21
898.93	212.10
899.24	212.19
899.54	212.24
899.85	212.14
900.15	212.12
900.46	212.29
900.76	212.26
901.07	212.62
901.38	212.74
901.68	212.86
901.99	211.86
902.29	211.81
902.60	211.81
902.90	211.81
903.21	211.88
903.51	211.79
903.82	212.00
904.12	211.57
904.43	211.98
904.73	211.74
905.03	211.83
905.34	213.90
905.64	213.64
905.95	213.71
906.25	213.52
906.56	213.36
906.86	213.38
907.17	213.50
907.47	213.62
907.77	213.40
908.08	213.02
908.38	213.10
908.69	213.31
908.99	213.69
909.30	213.60
909.60	213.52
909.90	213.64
910.21	213.05
910.51	212.81
910.81	212.76
911.12	213.02
911.42	212.95
911.73	210.83
912.03	211.07
912.33	211.50
912.64	211.52
912.94	211.45
913.24	211.00
913.55	210.90
913.85	210.52
914.15	210.83
914.46	211.24
914.76	211.07
915.06	210.90
915.37	210.38
915.67	210.29
915.97	210.36
916.27	209.93
916.58	210.24
916.88	210.48
917.18	210.36
917.49	211.55
917.79	211.60
918.09	212.00
918.39	212.67
918.70	212.43
919.00	212.50
919.30	213.57
919.60	213.76
919.91	213.48
920.21	213.90
920.51	213.36
920.81	213.02
921.12	213.52
921.42	213.60
921.72	213.88
922.02	214.00
922.32	214.07
922.63	214.10
922.93	215.07
923.23	215.19
923.53	214.93
923.83	213.69
924.13	213.79
924.44	213.76
924.74	214.05
925.04	214.50
925.34	214.50
925.64	213.67
925.94	213.74
926.24	214.79
926.55	214.38
926.85	214.79
927.15	215.02
927.45	214.95
927.75	214.81
928.05	214.64
928.35	214.57
928.65	215.00
928.95	215.10
929.26	214.24
929.56	214.48
929.86	214.95
930.16	214.81
930.46	214.76
930.76	214.52
931.06	213.36
931.36	212.79
931.66	212.98
931.96	213.00
932.26	213.00
932.56	212.31
932.86	212.76
933.16	212.64
933.46	212.48
933.76	212.33
934.06	212.79
934.36	213.26
934.66	212.98
934.96	212.76
935.26	212.88
935.56	213.00
935.86	212.60
936.16	212.02
936.46	211.79
936.76	211.52
937.06	211.21
937.36	211.50
937.66	211.64
937.96	211.48
938.26	211.21
938.56	210.95
938.86	211.12
939.16	211.33
939.46	211.74
939.76	211.93
940.06	211.98
940.35	211.62
940.65	210.93
940.95	211.45
941.25	210.90
941.55	210.86
941.85	210.95
942.15	211.19
942.45	211.76
942.75	211.95
943.04	212.24
943.34	212.90
943.64	212.81
943.94	212.62
944.24	212.69
944.54	212.79
944.84	212.88
945.13	212.50
945.43	212.19
945.73	212.05
946.03	211.86
946.33	211.40
946.62	211.52
946.92	211.33
947.22	211.31
947.52	211.69
947.82	211.95
948.11	211.64
948.41	211.50
948.71	211.02
949.01	210.86
949.31	210.64
949.60	210.55
949.90	210.81
950.20	210.90
950.50	210.81
950.79	210.55
951.09	210.79
951.39	210.88
951.69	210.62
951.98	211.07
952.28	211.05
952.58	211.05
952.87	210.83
953.17	211.29
953.47	210.95
953.76	210.90
954.06	210.48
954.36	209.95
954.66	209.81
954.95	210.31
955.25	210.40
955.55	210.60
955.84	210.07
956.14	210.38
956.44	210.33
956.73	210.12
957.03	210.45
957.32	210.33
957.62	210.29
957.92	210.57
958.21	210.17
958.51	212.48
958.81	212.76
959.10	212.88
959.40	213.17
959.69	213.33
959.99	213.50
960.29	213.45
960.58	213.67
960.88	214.52
961.17	214.38
961.47	214.81
961.76	214.57
962.06	215.05
962.36	214.48
962.65	214.62
962.95	214.69
963.24	214.62
963.54	214.67
963.83	214.62
964.13	214.57
964.42	214.17
964.72	212.33
965.01	212.45
965.31	212.29
965.60	211.88
965.90	213.21
966.19	212.71
966.49	212.93
966.78	213.02
967.08	212.69
967.37	212.62
967.67	212.14
967.96	212.50
968.26	212.43
968.55	212.67
968.85	212.48
969.14	212.62
969.43	212.52
969.73	212.52
970.02	212.50
970.32	212.48
970.61	212.26
970.91	211.86
971.20	211.31
971.49	211.31
971.79	211.62
972.08	210.07
972.38	210.19
972.67	210.21
972.96	210.33
973.26	209.95
973.55	210.19
973.85	209.95
974.14	209.88
974.43	210.10
974.73	209.76
975.02	209.45
975.31	209.17
975.61	209.12
975.90	208.93
976.19	208.57
976.49	208.67
976.78	209.05
977.07	209.07
977.37	209.29
977.66	209.40
977.95	208.90
978.24	209.31
978.54	209.71
978.83	209.38
979.12	209.33
979.42	209.36
979.71	209.12
980.00	209.02
980.29	208.90
980.59	208.40
980.88	209.24
981.17	209.50
981.46	209.62
981.76	209.64
982.05	210.00
982.34	210.29
982.63	210.29
982.93	210.29
983.22	210.67
983.51	210.67
983.80	210.98
984.09	211.36
984.39	211.05
984.68	210.79
984.97	211.05
985.26	210.88
985.55	211.17
985.85	210.69
986.14	211.24
986.43	211.79
986.72	211.71
987.01	210.81
987.30	210.71
987.59	210.48
987.89	210.48
988.18	210.00
988.47	209.76
988.76	209.55
989.05	209.29
989.34	208.90
989.63	209.48
989.92	209.05
990.22	208.79
990.51	208.74
990.80	208.57
991.09	208.69
991.38	208.90
991.67	208.43
991.96	208.62
992.25	208.62
992.54	208.14
992.83	208.26
993.12	208.40
993.41	208.71
993.70	209.64
993.99	209.98
994.28	210.38
994.58	210.71
994.87	210.48
995.16	210.36
995.45	210.33
995.74	209.64
996.03	209.93
996.32	210.24
996.61	210.76
996.90	210.67
997.19	210.38
997.48	210.48
997.77	210.33
998.06	210.33
998.34	210.33
998.63	210.21
998.92	210.36
999.21	210.60
999.50	210.57
999.79	209.93
1000.08	209.81
1000.37	209.71
1000.66	209.60
1000.95	210.05
1001.24	210.43
1001.53	210.69
1001.82	210.71
1002.11	210.19
1002.40	210.50
1002.68	210.79
1002.97	212.40
1003.26	212.38
1003.55	212.05
1003.84	212.24
1004.13	212.95
1004.42	212.71
1004.71	212.62
1004.99	212.31
1005.28	212.67
1005.57	212.33
1005.86	212.10
1006.15	211.93
1006.44	211.71
1006.72	211.95
1007.01	211.86
1007.30	211.60
1007.59	211.52
1007.88	211.64
1008.17	211.98
1008.45	211.50
1008.74	210.83
1009.03	209.83
1009.32	209.69
1009.60	209.67
1009.89	209.62
1010.18	208.79
1010.47	208.74
1010.76	208.57
1011.04	208.60
1011.33	208.74
1011.62	209.00
1011.91	209.33
1012.19	209.50
1012.48	209.55
1012.77	209.48
1013.05	210.48
1013.34	210.43
1013.63	210.19
1013.92	210.00
1014.20	209.81
1014.49	209.64
1014.78	209.69
1015.06	209.00
1015.35	209.02
1015.64	209.31
1015.92	209.57
1016.21	209.71
1016.50	209.74
1016.78	210.29
1017.07	210.31
1017.36	209.86
1017.64	209.57
1017.93	209.62
1018.22	209.19
1018.50	209.00
1018.79	208.88
1019.08	207.64
1019.36	207.79
1019.65	207.60
1019.93	208.40
1020.22	208.86
1020.51	210.07
1020.79	209.86
1021.08	201.50
1021.36	204.00
1021.65	208.00
1021.94	206.00
1022.22	208.00
1022.51	205.00
1022.79	221.00
1023.08	215.00
1023.36	234.00
1023.65	204.50
>>>>>End Processed Spectral Data<<<<<
