SpectraSuite Data File
++++++++++++++++++++++++++++++++++++
Date: Tue Apr 02 18:40:50 EDT 2013
User: group
Dark Spectrum Present: No
Reference Spectrum Present: No
Number of Sampled Component Spectra: 1
Spectrometers: USB2E7196
Integration Time (usec): 580000 (USB2E7196)
Spectra Averaged: 2 (USB2E7196)
Boxcar Smoothing: 10 (USB2E7196)
Correct for Electrical Dark: No (USB2E7196)
Strobe/Lamp Enabled: No (USB2E7196)
Correct for Detector Non-linearity: No (USB2E7196)
Correct for Stray Light: No (USB2E7196)
Number of Pixels in Processed Spectrum: 2048
>>>>>Begin Processed Spectral Data<<<<<
339.09	0.00
339.48	194.50
339.86	188.50
340.24	197.00
340.63	194.50
341.01	229.00
341.39	200.50
341.78	209.00
342.16	211.00
342.54	205.50
342.93	197.55
343.31	207.31
343.69	207.86
344.07	208.71
344.46	209.43
344.84	210.24
345.22	209.26
345.60	209.86
345.99	209.95
346.37	210.00
346.75	210.02
347.13	210.17
347.52	210.02
347.90	210.71
348.28	210.71
348.66	211.12
349.05	210.55
349.43	210.76
349.81	211.17
350.19	211.10
350.57	211.21
350.96	211.60
351.34	212.29
351.72	212.60
352.10	212.83
352.48	212.93
352.87	212.88
353.25	213.21
353.63	213.02
354.01	213.10
354.39	213.31
354.77	213.76
355.15	214.31
355.54	214.21
355.92	213.52
356.30	213.62
356.68	215.14
357.06	215.36
357.44	215.05
357.82	214.79
358.20	215.86
358.58	215.93
358.97	216.00
359.35	216.02
359.73	216.31
360.11	216.26
360.49	216.29
360.87	216.26
361.25	216.19
361.63	217.17
362.01	217.19
362.39	216.81
362.77	216.83
363.15	216.81
363.53	216.81
363.91	216.86
364.29	217.07
364.67	214.88
365.05	214.95
365.43	215.10
365.81	215.52
366.19	215.74
366.57	216.40
366.95	216.10
367.33	215.71
367.71	215.71
368.09	216.07
368.47	216.05
368.85	216.21
369.23	216.57
369.61	215.83
369.99	216.60
370.37	216.86
370.75	217.74
371.13	217.50
371.51	217.26
371.89	217.64
372.27	217.64
372.65	218.19
373.03	217.95
373.41	217.81
373.78	217.50
374.16	216.17
374.54	215.36
374.92	215.05
375.30	215.05
375.68	214.40
376.06	214.52
376.44	214.29
376.82	214.24
377.19	214.24
377.57	213.93
377.95	213.12
378.33	212.93
378.71	211.50
379.09	211.62
379.47	211.98
379.84	211.45
380.22	211.24
380.60	210.95
380.98	210.98
381.36	210.98
381.73	210.90
382.11	211.33
382.49	211.60
382.87	211.71
383.25	211.76
383.62	214.38
384.00	213.71
384.38	213.81
384.76	214.36
385.13	214.90
385.51	214.90
385.89	214.64
386.27	215.02
386.64	215.55
387.02	215.19
387.40	215.02
387.78	215.40
388.15	215.38
388.53	214.93
388.91	215.00
389.29	215.02
389.66	215.17
390.04	215.00
390.42	215.33
390.79	215.33
391.17	215.17
391.55	213.05
391.92	213.21
392.30	213.36
392.68	212.71
393.05	212.43
393.43	212.64
393.81	213.00
394.18	212.38
394.56	212.40
394.94	213.00
395.31	212.67
395.69	213.00
396.06	213.26
396.44	213.64
396.82	213.45
397.19	214.50
397.57	214.33
397.95	214.69
398.32	214.05
398.70	214.40
399.07	214.93
399.45	214.55
399.82	214.60
400.20	214.21
400.58	214.43
400.95	214.07
401.33	214.43
401.70	215.74
402.08	216.10
402.45	216.12
402.83	216.67
403.20	217.31
403.58	217.40
403.95	217.86
404.33	218.48
404.71	218.95
405.08	220.21
405.46	220.71
405.83	221.05
406.21	221.52
406.58	221.93
406.96	222.05
407.33	222.90
407.70	223.67
408.08	226.17
408.45	226.95
408.83	227.83
409.20	228.48
409.58	228.07
409.95	229.36
410.33	230.31
410.70	230.67
411.08	231.86
411.45	232.88
411.82	233.83
412.20	235.17
412.57	237.71
412.95	237.24
413.32	238.90
413.69	240.26
414.07	242.19
414.44	244.26
414.82	246.62
415.19	249.19
415.56	251.64
415.94	253.00
416.31	255.83
416.68	258.40
417.06	261.62
417.43	265.48
417.81	268.98
418.18	273.02
418.55	276.98
418.93	281.40
419.30	285.74
419.67	290.69
420.04	295.55
420.42	299.98
420.79	307.67
421.16	313.33
421.54	320.62
421.91	326.86
422.28	333.26
422.66	340.19
423.03	348.19
423.40	355.38
423.77	363.05
424.15	370.81
424.52	379.05
424.89	388.05
425.26	396.00
425.64	403.83
426.01	412.14
426.38	421.14
426.75	431.14
427.13	441.00
427.50	450.93
427.87	461.19
428.24	471.60
428.61	480.67
428.99	492.95
429.36	503.98
429.73	516.00
430.10	527.79
430.47	539.93
430.85	551.10
431.22	564.19
431.59	579.86
431.96	592.86
432.33	607.36
432.70	621.93
433.08	639.14
433.45	655.33
433.82	671.33
434.19	689.40
434.56	706.86
434.93	722.90
435.30	739.67
435.68	758.07
436.05	775.76
436.42	793.21
436.79	809.19
437.16	827.05
437.53	846.05
437.90	864.69
438.27	883.26
438.64	901.83
439.01	919.64
439.38	934.52
439.75	950.69
440.13	968.79
440.50	984.62
440.87	998.71
441.24	1012.43
441.61	1027.86
441.98	1038.57
442.35	1051.14
442.72	1065.43
443.09	1079.69
443.46	1087.93
443.83	1093.69
444.20	1098.90
444.57	1105.29
444.94	1108.62
445.31	1111.88
445.68	1118.00
446.05	1119.71
446.42	1118.81
446.79	1117.71
447.16	1115.33
447.53	1113.93
447.90	1107.00
448.27	1100.79
448.64	1090.86
449.01	1084.79
449.37	1073.36
449.74	1062.48
450.11	1050.74
450.48	1034.67
450.85	1017.64
451.22	1003.95
451.59	991.81
451.96	979.31
452.33	963.40
452.70	949.33
453.07	931.57
453.43	910.93
453.80	893.62
454.17	877.10
454.54	860.93
454.91	843.86
455.28	826.79
455.65	811.45
456.02	798.98
456.38	785.69
456.75	769.29
457.12	755.45
457.49	742.17
457.86	726.86
458.23	716.52
458.59	704.40
458.96	692.10
459.33	680.52
459.70	669.69
460.07	660.76
460.43	650.00
460.80	640.64
461.17	632.93
461.54	624.12
461.91	615.50
462.27	606.86
462.64	599.33
463.01	591.02
463.38	583.90
463.74	573.21
464.11	566.17
464.48	560.02
464.85	553.05
465.21	548.19
465.58	542.64
465.95	535.69
466.32	530.31
466.68	525.10
467.05	519.67
467.42	514.26
467.78	508.62
468.15	503.43
468.52	499.88
468.88	494.26
469.25	489.10
469.62	485.79
469.98	481.43
470.35	477.38
470.72	474.02
471.08	469.07
471.45	466.17
471.82	463.26
472.18	459.40
472.55	456.81
472.92	452.71
473.28	449.81
473.65	447.00
474.02	444.07
474.38	442.05
474.75	440.31
475.11	437.93
475.48	436.26
475.85	434.74
476.21	432.31
476.58	430.64
476.94	429.60
477.31	428.12
477.67	427.05
478.04	426.21
478.41	425.76
478.77	427.55
479.14	425.93
479.50	425.07
479.87	425.02
480.23	424.83
480.60	424.62
480.96	424.67
481.33	425.36
481.69	425.14
482.06	425.02
482.42	425.19
482.79	425.81
483.15	426.29
483.52	427.02
483.88	427.79
484.25	428.62
484.61	429.50
484.98	430.62
485.34	432.33
485.71	434.07
486.07	435.36
486.44	434.74
486.80	436.81
487.17	438.40
487.53	440.88
487.90	443.26
488.26	446.17
488.62	448.71
488.99	451.12
489.35	454.26
489.72	457.00
490.08	459.67
490.44	462.52
490.81	466.10
491.17	469.00
491.54	472.33
491.90	475.98
492.26	479.81
492.63	483.19
492.99	486.64
493.36	490.21
493.72	494.88
494.08	499.26
494.45	504.02
494.81	509.43
495.17	514.24
495.54	519.26
495.90	524.52
496.26	529.62
496.63	535.21
496.99	541.12
497.35	546.83
497.72	553.36
498.08	559.05
498.44	564.79
498.80	571.33
499.17	578.05
499.53	584.62
499.89	592.19
500.26	598.76
500.62	605.90
500.98	613.64
501.34	620.62
501.71	628.62
502.07	635.69
502.43	642.43
502.79	649.64
503.16	657.12
503.52	664.43
503.88	672.52
504.24	680.43
504.60	688.67
504.97	696.69
505.33	704.40
505.69	713.71
506.05	721.60
506.41	729.86
506.78	738.43
507.14	746.05
507.50	753.98
507.86	762.88
508.22	771.55
508.59	779.14
508.95	787.31
509.31	796.31
509.67	804.60
510.03	813.17
510.39	821.14
510.75	829.76
511.12	838.10
511.48	846.02
511.84	854.43
512.20	861.98
512.56	870.33
512.92	878.38
513.28	886.00
513.64	893.76
514.00	901.81
514.37	909.29
514.73	917.69
515.09	925.60
515.45	932.98
515.81	940.12
516.17	947.88
516.53	955.52
516.89	961.93
517.25	969.48
517.61	976.76
517.97	983.90
518.33	990.36
518.69	997.10
519.05	1004.19
519.41	1010.67
519.77	1018.57
520.13	1024.90
520.49	1031.52
520.85	1037.38
521.21	1045.14
521.57	1051.62
521.93	1057.52
522.29	1064.12
522.65	1069.62
523.01	1076.12
523.37	1081.98
523.73	1087.71
524.09	1093.05
524.45	1098.69
524.81	1104.12
525.17	1109.90
525.53	1115.48
525.89	1120.90
526.25	1126.26
526.61	1131.02
526.97	1135.88
527.33	1140.00
527.68	1146.48
528.04	1151.52
528.40	1157.05
528.76	1160.86
529.12	1165.69
529.48	1172.17
529.84	1175.98
530.20	1180.71
530.56	1185.40
530.91	1190.24
531.27	1195.74
531.63	1200.95
531.99	1205.12
532.35	1209.64
532.71	1213.93
533.07	1219.40
533.42	1226.21
533.78	1231.19
534.14	1235.98
534.50	1239.74
534.86	1245.31
535.21	1248.76
535.57	1254.26
535.93	1258.24
536.29	1263.81
536.65	1268.29
537.00	1271.00
537.36	1276.05
537.72	1280.36
538.08	1284.67
538.44	1289.07
538.79	1292.17
539.15	1295.36
539.51	1300.21
539.87	1304.43
540.22	1309.14
540.58	1313.00
540.94	1315.24
541.29	1318.81
541.65	1322.24
542.01	1327.57
542.37	1330.43
542.72	1333.40
543.08	1335.62
543.44	1340.33
543.79	1342.52
544.15	1346.43
544.51	1350.67
544.87	1354.67
545.22	1358.64
545.58	1361.95
545.94	1365.21
546.29	1369.67
546.65	1373.86
547.01	1376.86
547.36	1380.24
547.72	1382.02
548.07	1384.86
548.43	1387.45
548.79	1390.62
549.14	1392.33
549.50	1395.36
549.86	1398.12
550.21	1402.07
550.57	1405.83
550.92	1408.69
551.28	1412.98
551.64	1415.83
551.99	1418.38
552.35	1421.24
552.70	1423.90
553.06	1427.55
553.41	1430.81
553.77	1434.40
554.13	1438.86
554.48	1443.69
554.84	1448.45
555.19	1454.02
555.55	1459.48
555.90	1463.71
556.26	1467.48
556.61	1472.93
556.97	1476.33
557.32	1481.05
557.68	1484.90
558.03	1489.43
558.39	1493.26
558.74	1497.57
559.10	1502.38
559.45	1508.05
559.81	1512.19
560.16	1516.86
560.52	1521.90
560.87	1527.38
561.23	1532.36
561.58	1538.33
561.94	1542.33
562.29	1546.26
562.64	1551.07
563.00	1554.57
563.35	1559.90
563.71	1566.90
564.06	1572.55
564.42	1578.40
564.77	1584.36
565.12	1591.50
565.48	1598.86
565.83	1605.79
566.19	1611.98
566.54	1617.52
566.89	1622.74
567.25	1629.79
567.60	1637.21
567.96	1643.90
568.31	1650.00
568.66	1655.71
569.02	1659.57
569.37	1665.10
569.72	1670.69
570.08	1674.14
570.43	1679.38
570.78	1685.62
571.14	1689.24
571.49	1694.12
571.84	1698.95
572.20	1703.12
572.55	1706.83
572.90	1709.26
573.26	1711.98
573.61	1714.74
573.96	1719.43
574.31	1723.64
574.67	1726.64
575.02	1729.19
575.37	1731.40
575.72	1734.00
576.08	1736.71
576.43	1739.24
576.78	1741.60
577.13	1744.62
577.49	1748.81
577.84	1752.12
578.19	1754.38
578.54	1757.50
578.90	1760.64
579.25	1762.83
579.60	1765.14
579.95	1766.38
580.30	1768.95
580.66	1772.50
581.01	1776.05
581.36	1777.33
581.71	1778.50
582.06	1781.40
582.42	1783.60
582.77	1785.55
583.12	1788.10
583.47	1790.74
583.82	1793.45
584.17	1795.64
584.53	1798.17
584.88	1799.60
585.23	1801.02
585.58	1802.19
585.93	1803.45
586.28	1805.10
586.63	1807.12
586.98	1809.76
587.34	1812.52
587.69	1813.33
588.04	1813.71
588.39	1814.69
588.74	1814.76
589.09	1816.50
589.44	1815.90
589.79	1816.12
590.14	1816.64
590.49	1816.50
590.84	1816.07
591.19	1816.57
591.54	1817.29
591.89	1816.69
592.25	1818.38
592.60	1818.24
592.95	1818.40
593.30	1818.50
593.65	1817.67
594.00	1816.90
594.35	1821.10
594.70	1820.02
595.05	1819.33
595.40	1818.86
595.75	1817.38
596.10	1818.48
596.45	1817.50
596.80	1817.67
597.15	1817.98
597.50	1817.02
597.85	1817.26
598.19	1815.79
598.54	1814.40
598.89	1812.93
599.24	1812.95
599.59	1810.45
599.94	1809.17
600.29	1807.24
600.64	1805.45
600.99	1804.10
601.34	1803.29
601.69	1796.00
602.04	1793.43
602.39	1791.95
602.74	1790.31
603.08	1788.76
603.43	1787.33
603.78	1785.12
604.13	1783.00
604.48	1780.33
604.83	1778.64
605.18	1775.69
605.53	1774.19
605.87	1771.74
606.22	1769.24
606.57	1765.26
606.92	1762.67
607.27	1760.71
607.62	1758.38
607.96	1756.83
608.31	1754.95
608.66	1751.88
609.01	1748.95
609.36	1746.90
609.70	1743.67
610.05	1739.95
610.40	1736.93
610.75	1731.76
611.10	1729.21
611.44	1725.07
611.79	1721.14
612.14	1717.07
612.49	1713.33
612.83	1708.71
613.18	1704.50
613.53	1700.64
613.88	1695.81
614.22	1691.02
614.57	1686.05
614.92	1681.21
615.27	1676.43
615.61	1670.38
615.96	1665.14
616.31	1659.57
616.65	1655.64
617.00	1651.14
617.35	1647.36
617.70	1642.40
618.04	1637.90
618.39	1632.31
618.74	1627.21
619.08	1621.71
619.43	1617.33
619.78	1611.21
620.12	1606.90
620.47	1601.76
620.82	1595.40
621.16	1590.76
621.51	1587.17
621.85	1581.62
622.20	1576.14
622.55	1570.21
622.89	1565.81
623.24	1561.24
623.59	1556.60
623.93	1550.67
624.28	1545.19
624.62	1541.64
624.97	1538.26
625.32	1533.79
625.66	1528.62
626.01	1523.19
626.35	1519.12
626.70	1513.21
627.04	1510.05
627.39	1505.29
627.73	1501.45
628.08	1498.69
628.43	1493.88
628.77	1489.00
629.12	1485.10
629.46	1480.88
629.81	1476.21
630.15	1470.50
630.50	1464.69
630.84	1459.29
631.19	1454.45
631.53	1449.50
631.88	1440.62
632.22	1432.74
632.57	1427.26
632.91	1421.29
633.26	1416.57
633.60	1409.88
633.95	1404.33
634.29	1396.93
634.64	1390.93
634.98	1384.50
635.32	1378.36
635.67	1373.05
636.01	1366.95
636.36	1359.86
636.70	1355.10
637.05	1349.33
637.39	1345.02
637.73	1340.05
638.08	1335.26
638.42	1328.71
638.77	1323.33
639.11	1318.74
639.45	1313.29
639.80	1307.14
640.14	1301.76
640.49	1295.55
640.83	1289.17
641.17	1282.64
641.52	1277.31
641.86	1272.14
642.20	1266.36
642.55	1259.00
642.89	1252.71
643.23	1246.31
643.58	1241.24
643.92	1233.62
644.26	1227.12
644.61	1220.71
644.95	1213.57
645.29	1206.40
645.64	1200.71
645.98	1194.24
646.32	1187.90
646.66	1181.29
647.01	1174.10
647.35	1168.38
647.69	1161.93
648.04	1157.29
648.38	1151.88
648.72	1145.40
649.06	1138.36
649.41	1131.17
649.75	1124.79
650.09	1118.17
650.43	1110.74
650.78	1104.26
651.12	1097.50
651.46	1090.88
651.80	1083.93
652.14	1077.90
652.49	1072.05
652.83	1065.17
653.17	1058.31
653.51	1051.36
653.85	1045.07
654.20	1038.81
654.54	1031.14
654.88	1024.24
655.22	1017.60
655.56	1010.60
655.90	1003.57
656.25	996.88
656.59	990.67
656.93	984.55
657.27	979.31
657.61	973.24
657.95	966.74
658.29	961.19
658.64	955.38
658.98	948.64
659.32	942.31
659.66	935.74
660.00	929.88
660.34	923.57
660.68	918.05
661.02	911.81
661.36	905.60
661.70	899.98
662.05	895.14
662.39	888.79
662.73	883.81
663.07	879.79
663.41	873.88
663.75	868.38
664.09	862.81
664.43	855.90
664.77	850.26
665.11	843.76
665.45	837.93
665.79	832.38
666.13	826.67
666.47	821.24
666.81	815.95
667.15	810.07
667.49	804.95
667.83	800.00
668.17	794.98
668.51	790.21
668.85	785.26
669.19	780.21
669.53	774.62
669.87	768.00
670.21	761.57
670.55	755.93
670.89	750.60
671.23	745.90
671.57	741.29
671.91	736.02
672.25	731.50
672.58	727.17
672.92	721.71
673.26	717.00
673.60	711.40
673.94	706.14
674.28	701.24
674.62	696.86
674.96	691.52
675.30	686.98
675.64	682.64
675.97	678.24
676.31	673.14
676.65	668.55
676.99	665.52
677.33	661.17
677.67	656.93
678.01	652.21
678.34	647.69
678.68	643.43
679.02	639.62
679.36	634.95
679.70	630.38
680.04	626.31
680.37	621.86
680.71	617.69
681.05	614.10
681.39	610.07
681.73	605.19
682.06	600.71
682.40	596.26
682.74	592.19
683.08	588.33
683.42	583.55
683.75	579.45
684.09	574.67
684.43	570.21
684.77	566.17
685.10	562.36
685.44	557.71
685.78	553.38
686.12	549.43
686.45	546.07
686.79	541.81
687.13	537.76
687.46	533.98
687.80	531.36
688.14	527.57
688.48	524.05
688.81	520.55
689.15	518.05
689.49	514.40
689.82	510.69
690.16	506.14
690.50	503.05
690.83	499.79
691.17	496.07
691.51	492.90
691.84	489.95
692.18	486.57
692.52	483.93
692.85	480.86
693.19	478.19
693.52	474.14
693.86	470.93
694.20	467.81
694.53	464.98
694.87	461.26
695.21	457.52
695.54	454.12
695.88	450.88
696.21	446.67
696.55	443.64
696.88	440.45
697.22	437.88
697.56	435.33
697.89	431.95
698.23	429.55
698.56	426.31
698.90	423.50
699.23	420.29
699.57	417.64
699.90	414.76
700.24	411.36
700.58	409.38
700.91	407.05
701.25	406.14
701.58	403.90
701.92	401.98
702.25	399.88
702.59	397.60
702.92	395.52
703.26	393.71
703.59	391.74
703.93	391.05
704.26	388.95
704.60	386.81
704.93	385.10
705.26	382.57
705.60	381.10
705.93	378.55
706.27	377.69
706.60	375.83
706.94	374.67
707.27	372.57
707.61	370.29
707.94	368.24
708.27	364.71
708.61	362.38
708.94	360.00
709.28	358.12
709.61	356.36
709.94	354.69
710.28	352.76
710.61	351.00
710.95	347.43
711.28	347.07
711.61	345.31
711.95	344.05
712.28	342.40
712.61	340.43
712.95	339.76
713.28	338.60
713.61	336.67
713.95	334.29
714.28	333.12
714.61	331.79
714.95	330.00
715.28	328.40
715.61	326.74
715.95	325.69
716.28	324.17
716.61	322.93
716.95	321.38
717.28	320.00
717.61	318.52
717.94	317.07
718.28	314.31
718.61	312.86
718.94	310.81
719.27	309.48
719.61	308.24
719.94	306.52
720.27	304.36
720.60	302.98
720.94	302.00
721.27	300.83
721.60	299.98
721.93	298.86
722.27	298.43
722.60	297.62
722.93	296.02
723.26	295.24
723.59	293.74
723.93	292.98
724.26	292.26
724.59	291.21
724.92	290.60
725.25	290.12
725.59	289.00
725.92	288.57
726.25	287.93
726.58	287.24
726.91	286.29
727.24	285.64
727.57	285.19
727.91	284.07
728.24	283.55
728.57	282.36
728.90	281.81
729.23	280.60
729.56	280.98
729.89	280.29
730.22	279.50
730.55	278.88
730.89	278.14
731.22	277.21
731.55	276.36
731.88	275.86
732.21	274.74
732.54	274.21
732.87	273.43
733.20	272.38
733.53	271.95
733.86	271.50
734.19	270.64
734.52	270.19
734.85	270.95
735.18	270.00
735.51	270.48
735.84	270.07
736.17	270.05
736.50	268.50
736.83	270.24
737.16	269.48
737.49	268.88
737.82	268.00
738.15	267.64
738.48	267.31
738.81	266.45
739.14	265.60
739.47	264.93
739.80	264.48
740.13	264.52
740.46	263.45
740.79	262.29
741.12	261.76
741.45	260.69
741.78	259.21
742.11	259.00
742.44	257.67
742.77	257.29
743.10	256.24
743.43	255.45
743.75	252.79
744.08	254.88
744.41	254.29
744.74	253.71
745.07	252.95
745.40	252.60
745.73	252.88
746.06	252.64
746.39	252.36
746.71	251.67
747.04	250.83
747.37	250.50
747.70	250.71
748.03	250.19
748.36	250.21
748.68	249.83
749.01	249.00
749.34	248.64
749.67	248.24
750.00	248.17
750.33	249.38
750.65	249.07
750.98	246.02
751.31	245.95
751.64	245.81
751.97	246.55
752.29	246.29
752.62	245.21
752.95	244.86
753.28	244.29
753.60	243.81
753.93	244.05
754.26	243.79
754.59	242.93
754.91	242.50
755.24	241.83
755.57	241.50
755.90	240.83
756.22	240.40
756.55	239.71
756.88	239.12
757.20	237.24
757.53	236.40
757.86	236.31
758.19	236.07
758.51	235.43
758.84	234.02
759.17	233.26
759.49	233.17
759.82	233.90
760.15	233.93
760.47	233.74
760.80	232.86
761.13	232.93
761.45	232.45
761.78	232.24
762.11	232.14
762.43	231.55
762.76	231.76
763.08	231.69
763.41	231.67
763.74	231.50
764.06	231.60
764.39	231.45
764.71	231.17
765.04	230.74
765.37	230.64
765.69	230.52
766.02	230.24
766.34	229.81
766.67	228.71
767.00	228.83
767.32	229.67
767.65	230.57
767.97	230.26
768.30	230.31
768.62	229.86
768.95	229.36
769.27	228.95
769.60	228.76
769.92	228.43
770.25	227.90
770.57	227.40
770.90	226.95
771.22	226.76
771.55	226.76
771.87	226.71
772.20	226.45
772.52	228.07
772.85	230.38
773.17	230.33
773.50	230.21
773.82	229.79
774.15	228.71
774.47	227.33
774.80	227.00
775.12	226.62
775.45	226.74
775.77	226.69
776.09	226.93
776.42	226.83
776.74	227.07
777.07	226.86
777.39	226.67
777.72	226.38
778.04	226.55
778.36	226.26
778.69	226.21
779.01	226.26
779.33	224.31
779.66	222.29
779.98	221.93
780.31	221.90
780.63	222.60
780.95	222.95
781.28	223.07
781.60	222.81
781.92	222.90
782.25	223.07
782.57	222.90
782.89	222.69
783.22	222.43
783.54	221.88
783.86	222.00
784.19	222.07
784.51	222.69
784.83	222.21
785.16	222.10
785.48	222.07
785.80	221.88
786.12	221.98
786.45	221.64
786.77	221.93
787.09	221.86
787.42	221.02
787.74	220.98
788.06	220.95
788.38	220.98
788.71	220.83
789.03	220.69
789.35	221.02
789.67	220.83
789.99	220.79
790.32	220.48
790.64	220.81
790.96	222.17
791.28	221.48
791.61	221.64
791.93	221.67
792.25	221.45
792.57	222.93
792.89	222.33
793.21	222.57
793.54	222.21
793.86	222.07
794.18	222.21
794.50	221.79
794.82	221.60
795.14	221.76
795.47	222.45
795.79	222.38
796.11	221.86
796.43	221.71
796.75	221.67
797.07	221.93
797.39	221.79
797.71	220.29
798.04	220.36
798.36	220.45
798.68	220.62
799.00	220.86
799.32	219.60
799.64	220.14
799.96	220.00
800.28	220.43
800.60	220.02
800.92	220.10
801.24	219.93
801.56	220.24
801.89	219.76
802.21	219.52
802.53	219.19
802.85	219.64
803.17	220.45
803.49	220.21
803.81	220.12
804.13	219.67
804.45	219.62
804.77	219.60
805.09	219.50
805.41	219.00
805.73	218.38
806.05	217.93
806.37	217.81
806.69	217.52
807.01	217.10
807.33	217.21
807.65	216.29
807.97	217.12
808.28	216.67
808.60	216.67
808.92	216.43
809.24	217.69
809.56	217.29
809.88	216.64
810.20	216.55
810.52	216.83
810.84	216.64
811.16	216.31
811.48	216.36
811.80	217.07
812.12	216.95
812.43	217.43
812.75	217.69
813.07	217.31
813.39	217.40
813.71	217.17
814.03	216.95
814.35	217.19
814.67	216.36
814.98	216.19
815.30	216.29
815.62	215.79
815.94	214.45
816.26	214.50
816.58	214.29
816.89	214.81
817.21	214.33
817.53	214.50
817.85	214.64
818.17	214.50
818.48	213.48
818.80	214.07
819.12	213.67
819.44	213.21
819.76	213.14
820.07	213.26
820.39	213.62
820.71	213.86
821.03	213.98
821.34	213.86
821.66	214.29
821.98	214.45
822.30	214.60
822.61	215.83
822.93	215.81
823.25	215.62
823.57	215.24
823.88	215.74
824.20	215.60
824.52	215.95
824.83	215.76
825.15	215.79
825.47	215.62
825.79	215.86
826.10	215.90
826.42	215.86
826.74	216.02
827.05	215.62
827.37	215.45
827.69	215.05
828.00	215.24
828.32	215.07
828.64	214.79
828.95	215.95
829.27	215.45
829.58	215.48
829.90	216.19
830.22	216.38
830.53	215.69
830.85	215.74
831.17	215.48
831.48	215.67
831.80	215.74
832.11	215.55
832.43	215.24
832.75	215.48
833.06	216.81
833.38	216.02
833.69	216.12
834.01	216.38
834.32	216.55
834.64	216.36
834.96	216.62
835.27	216.55
835.59	215.69
835.90	215.21
836.22	214.95
836.53	214.21
836.85	213.93
837.16	216.12
837.48	216.00
837.79	216.45
838.11	216.31
838.42	216.12
838.74	216.50
839.05	216.52
839.37	216.21
839.68	214.93
840.00	215.02
840.31	215.45
840.63	215.31
840.94	215.07
841.26	214.67
841.57	214.52
841.88	214.83
842.20	214.40
842.51	214.19
842.83	214.26
843.14	216.21
843.46	216.38
843.77	215.17
844.08	215.45
844.40	214.83
844.71	214.76
845.03	214.98
845.34	214.83
845.65	214.71
845.97	214.93
846.28	215.05
846.60	215.14
846.91	214.74
847.22	214.64
847.54	215.07
847.85	215.29
848.16	214.86
848.48	214.17
848.79	215.00
849.10	215.07
849.42	215.26
849.73	213.24
850.04	213.12
850.36	212.38
850.67	212.52
850.98	212.74
851.30	212.98
851.61	212.74
851.92	212.33
852.23	212.83
852.55	212.76
852.86	212.67
853.17	212.74
853.49	213.07
853.80	213.50
854.11	213.71
854.42	214.02
854.74	214.10
855.05	214.45
855.36	213.48
855.67	213.57
855.99	213.55
856.30	216.10
856.61	216.00
856.92	216.21
857.23	216.19
857.55	215.79
857.86	215.48
858.17	215.86
858.48	215.79
858.79	215.24
859.11	215.33
859.42	215.36
859.73	214.93
860.04	214.88
860.35	214.31
860.66	213.76
860.98	213.62
861.29	213.71
861.60	213.57
861.91	213.93
862.22	213.76
862.53	213.31
862.84	210.67
863.16	211.29
863.47	210.69
863.78	210.62
864.09	210.90
864.40	211.17
864.71	210.93
865.02	211.12
865.33	211.07
865.64	210.90
865.95	210.67
866.27	212.31
866.58	212.10
866.89	212.40
867.20	212.31
867.51	212.12
867.82	211.88
868.13	212.69
868.44	212.38
868.75	212.62
869.06	212.79
869.37	213.07
869.68	212.14
869.99	212.86
870.30	212.83
870.61	212.88
870.92	212.36
871.23	212.38
871.54	212.57
871.85	213.10
872.16	213.21
872.47	213.17
872.78	211.86
873.09	211.83
873.40	211.36
873.71	211.57
874.02	211.57
874.33	211.43
874.64	210.88
874.95	211.19
875.26	210.74
875.56	210.81
875.87	210.88
876.18	211.14
876.49	213.14
876.80	212.81
877.11	212.50
877.42	212.79
877.73	212.60
878.04	212.31
878.35	212.19
878.66	212.12
878.96	212.17
879.27	212.33
879.58	212.36
879.89	212.29
880.20	212.76
880.51	212.86
880.82	213.07
881.12	213.17
881.43	212.95
881.74	212.95
882.05	212.71
882.36	212.76
882.67	212.98
882.97	210.60
883.28	210.69
883.59	210.64
883.90	210.93
884.21	211.48
884.51	211.33
884.82	211.05
885.13	211.31
885.44	211.36
885.74	211.21
886.05	211.12
886.36	211.17
886.67	210.45
886.98	211.60
887.28	211.81
887.59	211.76
887.90	211.64
888.20	211.57
888.51	211.98
888.82	211.57
889.13	211.48
889.43	213.17
889.74	213.02
890.05	212.98
890.35	212.83
890.66	212.26
890.97	212.19
891.28	212.17
891.58	212.33
891.89	212.29
892.20	212.19
892.50	212.17
892.81	212.29
893.12	212.31
893.42	211.26
893.73	211.36
894.04	211.55
894.34	211.95
894.65	212.00
894.95	211.98
895.26	212.31
895.57	213.17
895.87	211.45
896.18	211.86
896.48	212.12
896.79	212.02
897.10	212.48
897.40	212.64
897.71	212.79
898.01	212.43
898.32	212.50
898.63	212.40
898.93	212.57
899.24	212.64
899.54	212.76
899.85	212.67
900.15	212.67
900.46	212.55
900.76	212.64
901.07	212.40
901.38	212.36
901.68	212.45
901.99	211.55
902.29	211.64
902.60	211.60
902.90	211.50
903.21	211.50
903.51	211.31
903.82	211.64
904.12	211.76
904.43	211.83
904.73	211.93
905.03	212.07
905.34	213.69
905.64	213.55
905.95	213.50
906.25	213.45
906.56	213.29
906.86	213.19
907.17	212.90
907.47	213.17
907.77	213.02
908.08	212.57
908.38	212.74
908.69	212.95
908.99	213.14
909.30	213.17
909.60	213.21
909.90	213.52
910.21	212.98
910.51	212.52
910.81	212.71
911.12	213.07
911.42	213.14
911.73	211.36
912.03	211.67
912.33	212.00
912.64	211.93
912.94	211.81
913.24	211.60
913.55	211.62
913.85	211.52
914.15	211.98
914.46	212.33
914.76	212.26
915.06	212.02
915.37	211.55
915.67	211.29
915.97	211.29
916.27	210.69
916.58	210.88
916.88	210.98
917.18	210.67
917.49	211.79
917.79	211.55
918.09	211.86
918.39	212.36
918.70	212.29
919.00	212.31
919.30	213.33
919.60	213.45
919.91	213.19
920.21	213.24
920.51	212.64
920.81	212.52
921.12	212.95
921.42	212.76
921.72	212.98
922.02	213.12
922.32	213.50
922.63	213.50
922.93	214.36
923.23	214.57
923.53	214.45
923.83	213.12
924.13	213.43
924.44	213.40
924.74	213.50
925.04	214.02
925.34	214.05
925.64	213.00
925.94	212.95
926.24	214.21
926.55	214.00
926.85	214.33
927.15	214.19
927.45	214.07
927.75	214.21
928.05	214.38
928.35	214.31
928.65	214.48
928.95	214.83
929.26	214.24
929.56	214.52
929.86	214.95
930.16	214.86
930.46	214.50
930.76	214.31
931.06	213.57
931.36	212.98
931.66	213.21
931.96	213.60
932.26	213.60
932.56	212.64
932.86	213.29
933.16	213.24
933.46	213.12
933.76	212.79
934.06	213.12
934.36	213.67
934.66	213.79
934.96	213.55
935.26	213.79
935.56	213.79
935.86	213.21
936.16	212.57
936.46	212.45
936.76	212.55
937.06	212.45
937.36	212.76
937.66	212.76
937.96	212.81
938.26	212.21
938.56	211.95
938.86	211.83
939.16	211.98
939.46	212.24
939.76	212.50
940.06	212.57
940.35	212.19
940.65	211.19
940.95	211.48
941.25	211.10
941.55	210.45
941.85	210.43
942.15	210.88
942.45	211.79
942.75	211.81
943.04	211.98
943.34	212.31
943.64	211.93
943.94	211.60
944.24	211.74
944.54	211.98
944.84	211.95
945.13	211.81
945.43	211.17
945.73	210.81
946.03	210.45
946.33	210.00
946.62	210.00
946.92	209.86
947.22	209.86
947.52	209.81
947.82	210.24
948.11	210.10
948.41	209.55
948.71	209.33
949.01	209.38
949.31	209.17
949.60	208.83
949.90	208.95
950.20	208.93
950.50	208.76
950.79	208.62
951.09	209.07
951.39	209.10
951.69	209.05
951.98	209.40
952.28	209.79
952.58	210.00
952.87	210.05
953.17	210.67
953.47	210.36
953.76	210.33
954.06	209.90
954.36	209.64
954.66	209.62
954.95	209.57
955.25	209.76
955.55	209.98
955.84	209.67
956.14	210.05
956.44	210.05
956.73	209.60
957.03	209.83
957.32	209.67
957.62	209.48
957.92	210.00
958.21	209.88
958.51	212.00
958.81	212.17
959.10	212.29
959.40	212.55
959.69	212.52
959.99	212.83
960.29	213.07
960.58	213.10
960.88	214.12
961.17	213.76
961.47	213.83
961.76	213.79
962.06	214.31
962.36	213.98
962.65	214.21
962.95	214.31
963.24	214.29
963.54	214.60
963.83	214.95
964.13	214.71
964.42	214.21
964.72	212.69
965.01	212.81
965.31	212.74
965.60	212.17
965.90	213.67
966.19	213.21
966.49	213.21
966.78	213.12
967.08	212.86
967.37	213.07
967.67	212.71
967.96	213.02
968.26	213.02
968.55	213.14
968.85	213.19
969.14	213.19
969.43	212.98
969.73	212.74
970.02	212.71
970.32	212.60
970.61	212.69
970.91	211.90
971.20	211.52
971.49	211.52
971.79	211.74
972.08	210.07
972.38	210.31
972.67	210.29
972.96	210.74
973.26	210.45
973.55	211.05
973.85	210.90
974.14	210.74
974.43	210.88
974.73	210.52
975.02	210.36
975.31	210.38
975.61	210.45
975.90	210.05
976.19	209.76
976.49	210.14
976.78	210.38
977.07	210.55
977.37	210.64
977.66	210.67
977.95	210.33
978.24	210.69
978.54	211.29
978.83	211.10
979.12	210.74
979.42	210.57
979.71	210.10
980.00	210.10
980.29	210.07
980.59	209.76
980.88	210.36
981.17	210.17
981.46	210.29
981.76	210.21
982.05	211.31
982.34	211.48
982.63	211.10
982.93	210.88
983.22	211.33
983.51	211.31
983.80	211.69
984.09	212.21
984.39	212.12
984.68	211.62
984.97	211.93
985.26	211.71
985.55	211.86
985.85	211.57
986.14	211.93
986.43	212.12
986.72	212.02
987.01	211.19
987.30	211.26
987.59	211.10
987.89	211.40
988.18	210.40
988.47	210.26
988.76	210.19
989.05	210.21
989.34	209.95
989.63	210.76
989.92	210.29
990.22	209.98
990.51	209.95
990.80	209.90
991.09	209.83
991.38	210.29
991.67	210.07
991.96	209.88
992.25	209.98
992.54	209.83
992.83	209.81
993.12	210.02
993.41	210.60
993.70	211.60
993.99	211.74
994.28	211.95
994.58	212.24
994.87	212.14
995.16	212.29
995.45	212.12
995.74	211.21
996.03	211.55
996.32	211.86
996.61	212.14
996.90	212.19
997.19	212.19
997.48	212.31
997.77	212.33
998.06	212.50
998.34	211.98
998.63	211.88
998.92	212.00
999.21	212.36
999.50	212.10
999.79	211.33
1000.08	211.43
1000.37	211.71
1000.66	211.45
1000.95	212.17
1001.24	212.05
1001.53	212.33
1001.82	212.43
1002.11	211.88
1002.40	212.05
1002.68	212.48
1002.97	213.76
1003.26	213.71
1003.55	213.38
1003.84	213.40
1004.13	214.02
1004.42	214.07
1004.71	214.10
1004.99	213.90
1005.28	214.48
1005.57	214.45
1005.86	214.29
1006.15	214.02
1006.44	213.64
1006.72	214.12
1007.01	213.52
1007.30	213.67
1007.59	213.48
1007.88	213.40
1008.17	213.81
1008.45	213.48
1008.74	212.60
1009.03	211.71
1009.32	211.60
1009.60	211.71
1009.89	211.62
1010.18	211.02
1010.47	211.10
1010.76	210.95
1011.04	211.10
1011.33	210.79
1011.62	210.79
1011.91	210.86
1012.19	211.05
1012.48	210.88
1012.77	210.55
1013.05	211.36
1013.34	211.38
1013.63	211.14
1013.92	211.31
1014.20	211.00
1014.49	211.02
1014.78	211.19
1015.06	210.60
1015.35	210.60
1015.64	210.93
1015.92	211.14
1016.21	211.07
1016.50	211.17
1016.78	211.40
1017.07	211.48
1017.36	211.24
1017.64	210.95
1017.93	211.14
1018.22	210.86
1018.50	211.24
1018.79	211.40
1019.08	210.67
1019.36	210.76
1019.65	210.83
1019.93	211.31
1020.22	211.67
1020.51	212.48
1020.79	212.21
1021.08	209.50
1021.36	211.50
1021.65	213.00
1021.94	209.50
1022.22	214.50
1022.51	208.50
1022.79	220.50
1023.08	215.00
1023.36	232.50
1023.65	202.50
>>>>>End Processed Spectral Data<<<<<
