SpectraSuite Data File
++++++++++++++++++++++++++++++++++++
Date: Mon Feb 25 17:20:10 EST 2013
User: group
Dark Spectrum Present: No
Reference Spectrum Present: No
Number of Sampled Component Spectra: 1
Spectrometers: USB2E7196
Integration Time (usec): 104000 (USB2E7196)
Spectra Averaged: 20 (USB2E7196)
Boxcar Smoothing: 10 (USB2E7196)
Correct for Electrical Dark: No (USB2E7196)
Strobe/Lamp Enabled: No (USB2E7196)
Correct for Detector Non-linearity: No (USB2E7196)
Correct for Stray Light: No (USB2E7196)
Number of Pixels in Processed Spectrum: 2048
>>>>>Begin Processed Spectral Data<<<<<
339.09	0.00
339.48	198.30
339.86	201.80
340.24	200.60
340.63	203.95
341.01	210.20
341.39	206.20
341.78	206.80
342.16	209.40
342.54	209.00
342.93	198.63
343.31	208.65
343.69	209.22
344.07	209.63
344.46	210.20
344.84	210.66
345.22	210.79
345.60	211.13
345.99	211.43
346.37	211.57
346.75	211.72
347.13	211.79
347.52	211.90
347.90	212.11
348.28	212.25
348.66	212.37
349.05	212.26
349.43	212.43
349.81	212.50
350.19	212.65
350.57	212.80
350.96	212.92
351.34	213.13
351.72	213.33
352.10	213.43
352.48	213.49
352.87	213.46
353.25	213.45
353.63	213.47
354.01	213.48
354.39	213.63
354.77	213.79
355.15	213.91
355.54	213.91
355.92	213.85
356.30	213.93
356.68	214.21
357.06	214.38
357.44	214.35
357.82	214.35
358.20	214.41
358.58	214.50
358.97	214.53
359.35	214.59
359.73	214.65
360.11	214.72
360.49	214.83
360.87	214.89
361.25	215.06
361.63	215.23
362.01	215.31
362.39	215.29
362.77	215.32
363.15	215.36
363.53	215.42
363.91	215.43
364.29	215.45
364.67	215.13
365.05	215.17
365.43	215.25
365.81	215.32
366.19	215.50
366.57	215.62
366.95	215.65
367.33	215.50
367.71	215.49
368.09	215.62
368.47	215.57
368.85	215.55
369.23	215.56
369.61	215.40
369.99	215.47
370.37	215.45
370.75	215.56
371.13	215.56
371.51	215.51
371.89	215.50
372.27	215.53
372.65	215.56
373.03	215.45
373.41	215.32
373.78	215.24
374.16	215.01
374.54	214.81
374.92	214.76
375.30	214.81
375.68	214.77
376.06	214.68
376.44	214.59
376.82	214.59
377.19	214.49
377.57	214.50
377.95	214.33
378.33	214.27
378.71	213.96
379.09	213.94
379.47	213.93
379.84	213.83
380.22	213.69
380.60	213.57
380.98	213.55
381.36	213.57
381.73	213.57
382.11	213.63
382.49	213.65
382.87	213.52
383.25	213.49
383.62	213.81
384.00	213.74
384.38	213.70
384.76	213.72
385.13	213.83
385.51	213.76
385.89	213.72
386.27	213.68
386.64	213.73
387.02	213.61
387.40	213.56
387.78	213.62
388.15	213.64
388.53	213.69
388.91	213.60
389.29	213.56
389.66	213.51
390.04	213.52
390.42	213.60
390.79	213.65
391.17	213.61
391.55	213.21
391.92	213.21
392.30	213.30
392.68	213.24
393.05	213.22
393.43	213.19
393.81	213.19
394.18	213.20
394.56	213.23
394.94	213.30
395.31	213.26
395.69	213.34
396.06	213.40
396.44	213.42
396.82	213.42
397.19	213.57
397.57	213.51
397.95	213.53
398.32	213.39
398.70	213.48
399.07	213.57
399.45	213.56
399.82	213.59
400.20	213.60
400.58	213.58
400.95	213.48
401.33	213.59
401.70	213.92
402.08	213.98
402.45	214.08
402.83	214.23
403.20	214.37
403.58	214.44
403.95	214.62
404.33	214.77
404.71	214.93
405.08	215.21
405.46	215.45
405.83	215.62
406.21	215.89
406.58	216.12
406.96	216.31
407.33	216.63
407.70	216.94
408.08	217.48
408.45	217.89
408.83	218.24
409.20	218.64
409.58	218.82
409.95	219.25
410.33	219.67
410.70	220.06
411.08	220.63
411.45	221.19
411.82	221.69
412.20	222.37
412.57	223.30
412.95	223.71
413.32	224.55
413.69	225.26
414.07	226.06
414.44	226.97
414.82	227.94
415.19	229.05
415.56	230.14
415.94	231.08
416.31	232.40
416.68	233.73
417.06	235.20
417.43	236.66
417.81	238.34
418.18	240.01
418.55	241.83
418.93	243.72
419.30	245.56
419.67	247.67
420.04	249.73
420.42	251.80
420.79	254.57
421.16	257.10
421.54	259.91
421.91	262.69
422.28	265.56
422.66	268.61
423.03	271.71
423.40	274.77
423.77	278.10
424.15	281.45
424.52	284.90
424.89	288.64
425.26	292.30
425.64	295.70
426.01	299.45
426.38	303.46
426.75	307.50
427.13	311.78
427.50	316.10
427.87	320.70
428.24	325.20
428.61	329.52
428.99	334.31
429.36	339.32
429.73	344.46
430.10	349.47
430.47	354.66
430.85	359.94
431.22	365.70
431.59	371.86
431.96	377.41
432.33	383.76
432.70	389.97
433.08	397.25
433.45	404.15
433.82	410.94
434.19	418.38
434.56	425.61
434.93	432.62
435.30	439.75
435.68	447.50
436.05	455.20
436.42	462.67
436.79	469.55
437.16	477.20
437.53	485.00
437.90	492.93
438.27	500.69
438.64	508.60
439.01	515.88
439.38	522.37
439.75	528.89
440.13	536.20
440.50	542.98
440.87	548.47
441.24	554.26
441.61	560.64
441.98	565.35
442.35	570.80
442.72	576.27
443.09	581.58
443.46	584.71
443.83	586.86
444.20	588.70
444.57	591.44
444.94	592.56
445.31	593.81
445.68	595.04
446.05	595.46
446.42	594.49
446.79	593.62
447.16	592.48
447.53	591.73
447.90	588.50
448.27	585.48
448.64	581.27
449.01	578.20
449.37	572.91
449.74	567.79
450.11	562.05
450.48	555.52
450.85	548.70
451.22	542.94
451.59	537.34
451.96	532.14
452.33	525.05
452.70	518.59
453.07	511.08
453.43	503.20
453.80	495.79
454.17	488.87
454.54	482.11
454.91	474.95
455.28	467.85
455.65	461.51
456.02	455.28
456.38	449.80
456.75	442.94
457.12	437.21
457.49	431.50
457.86	425.78
458.23	421.11
458.59	415.94
458.96	410.71
459.33	406.18
459.70	401.50
460.07	397.93
460.43	393.82
460.80	389.91
461.17	386.52
461.54	382.93
461.91	379.47
462.27	376.01
462.64	373.05
463.01	369.84
463.38	366.85
463.74	363.47
464.11	360.70
464.48	358.37
464.85	355.84
465.21	353.91
465.58	351.83
465.95	349.25
466.32	347.20
466.68	345.24
467.05	343.19
467.42	341.22
467.78	339.13
468.15	337.18
468.52	335.72
468.88	333.80
469.25	332.04
469.62	330.81
469.98	329.37
470.35	328.07
470.72	326.96
471.08	325.50
471.45	324.43
471.82	323.39
472.18	322.11
472.55	321.33
472.92	320.34
473.28	319.49
473.65	318.64
474.02	317.92
474.38	317.34
474.75	316.89
475.11	316.36
475.48	316.04
475.85	315.82
476.21	315.65
476.58	315.61
476.94	315.65
477.31	315.59
477.67	315.64
478.04	315.69
478.41	315.89
478.77	316.56
479.14	316.83
479.50	317.21
479.87	317.83
480.23	318.44
480.60	319.07
480.96	319.74
481.33	320.81
481.69	321.72
482.06	322.66
482.42	323.74
482.79	324.79
483.15	326.13
483.52	327.58
483.88	328.94
484.25	330.44
484.61	332.16
484.98	333.89
485.34	335.94
485.71	338.14
486.07	340.29
486.44	342.31
486.80	344.82
487.17	347.50
487.53	350.30
487.90	353.27
488.26	356.51
488.62	359.92
488.99	363.38
489.35	367.02
489.72	370.90
490.08	374.92
490.44	379.27
490.81	383.72
491.17	388.32
491.54	393.34
491.90	398.62
492.26	404.17
492.63	410.01
492.99	415.98
493.36	422.25
493.72	428.98
494.08	435.91
494.45	443.14
494.81	450.72
495.17	458.77
495.54	467.04
495.90	475.71
496.26	484.75
496.63	494.14
496.99	504.07
497.35	514.39
497.72	524.97
498.08	536.05
498.44	547.50
498.80	559.87
499.17	572.34
499.53	585.02
499.89	598.41
500.26	611.91
500.62	625.89
500.98	640.70
501.34	655.80
501.71	671.54
502.07	687.91
502.43	704.60
502.79	721.37
503.16	739.05
503.52	757.25
503.88	776.06
504.24	795.28
504.60	815.05
504.97	835.25
505.33	855.80
505.69	877.77
506.05	899.89
506.41	922.24
506.78	945.15
507.14	968.67
507.50	992.80
507.86	1017.63
508.22	1042.89
508.59	1068.37
508.95	1094.62
509.31	1121.26
509.67	1148.38
510.03	1176.27
510.39	1205.01
510.75	1233.85
511.12	1262.90
511.48	1292.35
511.84	1322.43
512.20	1352.25
512.56	1383.18
512.92	1414.78
513.28	1446.14
513.64	1478.05
514.00	1509.89
514.37	1541.87
514.73	1574.56
515.09	1607.17
515.45	1639.69
515.81	1672.93
516.17	1706.11
516.53	1739.41
516.89	1772.84
517.25	1805.98
517.61	1839.26
517.97	1872.57
518.33	1906.41
518.69	1940.06
519.05	1974.00
519.41	2007.88
519.77	2042.63
520.13	2076.32
520.49	2109.55
520.85	2143.32
521.21	2176.80
521.57	2211.41
521.93	2244.82
522.29	2279.32
522.65	2313.50
523.01	2347.59
523.37	2380.60
523.73	2413.98
524.09	2447.47
524.45	2481.09
524.81	2514.69
525.17	2548.31
525.53	2581.70
525.89	2614.39
526.25	2646.81
526.61	2678.17
526.97	2709.61
527.33	2740.65
527.68	2772.05
528.04	2802.92
528.40	2832.21
528.76	2862.19
529.12	2892.04
529.48	2923.17
529.84	2952.30
530.20	2981.06
530.56	3009.85
530.91	3040.00
531.27	3069.37
531.63	3097.83
531.99	3125.53
532.35	3152.33
532.71	3178.86
533.07	3205.82
533.42	3231.35
533.78	3257.49
534.14	3282.84
534.50	3307.00
534.86	3331.93
535.21	3355.31
535.57	3380.38
535.93	3403.99
536.29	3426.90
536.65	3449.53
537.00	3470.11
537.36	3490.29
537.72	3510.78
538.08	3530.88
538.44	3550.21
538.79	3569.51
539.15	3588.35
539.51	3607.22
539.87	3627.00
540.22	3645.00
540.58	3663.27
540.94	3681.12
541.29	3697.08
541.65	3712.98
542.01	3728.99
542.37	3743.65
542.72	3759.18
543.08	3772.49
543.44	3787.82
543.79	3800.58
544.15	3811.74
544.51	3825.00
544.87	3838.19
545.22	3849.35
545.58	3859.80
545.94	3868.75
546.29	3877.20
546.65	3885.15
547.01	3892.57
547.36	3899.65
547.72	3906.75
548.07	3911.63
548.43	3916.43
548.79	3921.56
549.14	3926.34
549.50	3931.00
549.86	3934.58
550.21	3937.52
550.57	3941.29
550.92	3942.37
551.28	3944.58
551.64	3947.71
551.99	3950.03
552.35	3951.24
552.70	3952.70
553.06	3954.22
553.41	3955.45
553.77	3956.12
554.13	3956.42
554.48	3957.30
554.84	3957.76
555.19	3956.77
555.55	3955.28
555.90	3953.67
556.26	3952.07
556.61	3950.07
556.97	3947.35
557.32	3945.37
557.68	3942.10
558.03	3937.97
558.39	3935.42
558.74	3933.56
559.10	3930.36
559.45	3926.21
559.81	3923.00
560.16	3918.16
560.52	3914.33
560.87	3909.87
561.23	3904.05
561.58	3899.79
561.94	3893.50
562.29	3886.44
562.64	3881.25
563.00	3876.49
563.35	3872.18
563.71	3867.80
564.06	3862.87
564.42	3858.18
564.77	3853.92
565.12	3849.60
565.48	3844.62
565.83	3838.96
566.19	3833.57
566.54	3826.44
566.89	3819.47
567.25	3812.75
567.60	3806.75
567.96	3799.22
568.31	3792.65
568.66	3785.79
569.02	3777.50
569.37	3769.16
569.72	3761.52
570.08	3752.94
570.43	3744.48
570.78	3734.94
571.14	3724.87
571.49	3715.16
571.84	3706.25
572.20	3694.36
572.55	3684.45
572.90	3673.08
573.26	3661.69
573.61	3649.75
573.96	3638.70
574.31	3626.48
574.67	3613.27
575.02	3600.02
575.37	3587.31
575.72	3573.49
576.08	3561.67
576.43	3548.68
576.78	3536.87
577.13	3525.20
577.49	3513.35
577.84	3500.47
578.19	3489.19
578.54	3478.13
578.90	3467.12
579.25	3454.12
579.60	3441.56
579.95	3427.44
580.30	3416.41
580.66	3405.10
581.01	3392.02
581.36	3378.74
581.71	3366.00
582.06	3353.83
582.42	3341.89
582.77	3328.66
583.12	3315.84
583.47	3303.75
583.82	3291.97
584.17	3278.95
584.53	3266.29
584.88	3253.23
585.23	3240.95
585.58	3227.57
585.93	3214.09
586.28	3201.43
586.63	3188.50
586.98	3176.38
587.34	3165.32
587.69	3152.09
588.04	3139.12
588.39	3126.97
588.74	3114.36
589.09	3102.83
589.44	3090.07
589.79	3078.64
590.14	3067.49
590.49	3055.60
590.84	3043.02
591.19	3031.67
591.54	3019.80
591.89	3005.57
592.25	2992.87
592.60	2979.26
592.95	2965.96
593.30	2951.89
593.65	2937.49
594.00	2924.97
594.35	2913.88
594.70	2900.61
595.05	2888.41
595.40	2875.83
595.75	2862.81
596.10	2851.06
596.45	2839.07
596.80	2828.06
597.15	2816.45
597.50	2803.77
597.85	2792.46
598.19	2779.99
598.54	2767.74
598.89	2756.17
599.24	2746.65
599.59	2735.84
599.94	2726.29
600.29	2715.99
600.64	2705.62
600.99	2694.27
601.34	2683.53
601.69	2670.81
602.04	2659.14
602.39	2647.62
602.74	2636.38
603.08	2626.66
603.43	2616.92
603.78	2605.89
604.13	2594.53
604.48	2583.21
604.83	2574.33
605.18	2564.75
605.53	2554.44
605.87	2543.45
606.22	2533.30
606.57	2522.01
606.92	2510.94
607.27	2499.19
607.62	2487.98
607.96	2478.05
608.31	2468.97
608.66	2457.22
609.01	2445.92
609.36	2434.69
609.70	2422.73
610.05	2410.97
610.40	2399.03
610.75	2386.51
611.10	2375.30
611.44	2362.20
611.79	2349.60
612.14	2335.80
612.49	2321.94
612.83	2309.26
613.18	2296.17
613.53	2282.88
613.88	2269.26
614.22	2256.98
614.57	2244.04
614.92	2231.43
615.27	2217.93
615.61	2204.66
615.96	2192.66
616.31	2181.32
616.65	2170.30
617.00	2159.05
617.35	2147.54
617.70	2135.04
618.04	2122.13
618.39	2108.68
618.74	2097.37
619.08	2084.75
619.43	2072.99
619.78	2061.68
620.12	2050.09
620.47	2038.87
620.82	2026.64
621.16	2014.63
621.51	2002.02
621.85	1990.41
622.20	1977.92
622.55	1965.88
622.89	1953.44
623.24	1941.48
623.59	1928.72
623.93	1916.10
624.28	1904.05
624.62	1892.29
624.97	1880.79
625.32	1869.75
625.66	1858.92
626.01	1847.92
626.35	1837.12
626.70	1825.80
627.04	1815.01
627.39	1804.04
627.73	1792.95
628.08	1782.42
628.43	1771.16
628.77	1760.19
629.12	1748.92
629.46	1739.33
629.81	1729.11
630.15	1719.14
630.50	1708.27
630.84	1697.47
631.19	1687.08
631.53	1676.86
631.88	1665.72
632.22	1654.55
632.57	1644.21
632.91	1633.67
633.26	1623.03
633.60	1612.99
633.95	1603.14
634.29	1592.25
634.64	1582.25
634.98	1571.64
635.32	1561.76
635.67	1552.75
636.01	1543.28
636.36	1533.13
636.70	1522.84
637.05	1512.84
637.39	1503.03
637.73	1494.02
638.08	1485.70
638.42	1476.54
638.77	1467.08
639.11	1457.90
639.45	1448.70
639.80	1438.96
640.14	1429.05
640.49	1419.58
640.83	1409.88
641.17	1400.26
641.52	1390.78
641.86	1380.52
642.20	1371.15
642.55	1360.99
642.89	1351.12
643.23	1341.23
643.58	1332.60
643.92	1322.71
644.26	1313.31
644.61	1303.81
644.95	1293.88
645.29	1284.02
645.64	1274.36
645.98	1264.80
646.32	1255.70
646.66	1246.34
647.01	1237.32
647.35	1228.60
647.69	1218.67
648.04	1209.60
648.38	1200.31
648.72	1191.11
649.06	1182.25
649.41	1173.15
649.75	1164.40
650.09	1155.56
650.43	1146.81
650.78	1137.45
651.12	1128.31
651.46	1119.31
651.80	1110.57
652.14	1102.10
652.49	1092.91
652.83	1084.14
653.17	1075.14
653.51	1066.01
653.85	1057.46
654.20	1048.74
654.54	1040.09
654.88	1031.88
655.22	1023.29
655.56	1014.56
655.90	1006.16
656.25	997.80
656.59	989.71
656.93	981.63
657.27	973.66
657.61	965.19
657.95	957.15
658.29	949.73
658.64	942.20
658.98	934.20
659.32	925.78
659.66	918.25
660.00	910.41
660.34	902.50
660.68	894.80
661.02	887.10
661.36	879.85
661.70	872.47
662.05	865.56
662.39	858.76
662.73	852.23
663.07	845.60
663.41	838.86
663.75	831.93
664.09	825.02
664.43	817.88
664.77	811.41
665.11	804.78
665.45	798.24
665.79	791.62
666.13	785.27
666.47	779.18
666.81	773.09
667.15	766.83
667.49	761.24
667.83	755.51
668.17	749.78
668.51	744.04
668.85	738.42
669.19	732.83
669.53	726.85
669.87	720.89
670.21	715.30
670.55	709.72
670.89	704.65
671.23	699.63
671.57	694.60
671.91	689.29
672.25	684.13
672.58	678.88
672.92	673.77
673.26	668.86
673.60	664.00
673.94	659.11
674.28	654.27
674.62	649.61
674.96	644.92
675.30	640.22
675.64	635.42
675.97	630.65
676.31	626.20
676.65	621.76
676.99	617.70
677.33	613.17
677.67	608.83
678.01	604.25
678.34	599.75
678.68	595.38
679.02	591.17
679.36	587.12
679.70	583.11
680.04	578.90
680.37	574.61
680.71	570.58
681.05	566.75
681.39	562.92
681.73	559.00
682.06	555.30
682.40	551.67
682.74	547.95
683.08	544.29
683.42	540.26
683.75	536.66
684.09	532.70
684.43	529.00
684.77	525.16
685.10	521.60
685.44	517.86
685.78	514.28
686.12	510.97
686.45	507.37
686.79	503.93
687.13	500.80
687.46	497.63
687.80	494.31
688.14	490.67
688.48	487.57
688.81	484.05
689.15	480.77
689.49	477.51
689.82	474.21
690.16	470.82
690.50	467.60
690.83	464.40
691.17	461.31
691.51	458.20
691.84	455.47
692.18	452.47
692.52	449.73
692.85	447.08
693.19	444.32
693.52	441.61
693.86	438.53
694.20	435.85
694.53	433.08
694.87	430.27
695.21	427.66
695.54	424.63
695.88	421.82
696.21	419.13
696.55	416.57
696.88	414.02
697.22	411.57
697.56	409.07
697.89	406.73
698.23	404.22
698.56	401.84
698.90	399.48
699.23	396.94
699.57	394.55
699.90	392.12
700.24	389.68
700.58	387.36
700.91	385.43
701.25	383.33
701.58	381.22
701.92	379.18
702.25	377.07
702.59	375.05
702.92	373.17
703.26	371.08
703.59	369.12
703.93	367.48
704.26	365.64
704.60	363.82
704.93	361.84
705.26	359.90
705.60	358.12
705.93	356.14
706.27	354.62
706.60	353.07
706.94	351.52
707.27	349.69
707.61	347.98
707.94	346.20
708.27	344.20
708.61	342.46
708.94	340.83
709.28	339.20
709.61	337.71
709.94	336.17
710.28	334.81
710.61	333.32
710.95	331.47
711.28	330.27
711.61	328.76
711.95	327.38
712.28	326.10
712.61	324.65
712.95	323.49
713.28	322.24
713.61	320.68
713.95	319.26
714.28	318.04
714.61	316.75
714.95	315.47
715.28	314.22
715.61	312.88
715.95	311.59
716.28	310.28
716.61	309.09
716.95	307.79
717.28	306.50
717.61	305.35
717.94	304.27
718.28	302.79
718.61	301.78
718.94	300.53
719.27	299.43
719.61	298.39
719.94	297.25
720.27	296.00
720.60	294.98
720.94	293.98
721.27	293.08
721.60	292.19
721.93	291.19
722.27	290.37
722.60	289.60
722.93	288.72
723.26	287.92
723.59	286.93
723.93	286.20
724.26	285.34
724.59	284.45
724.92	283.62
725.25	282.98
725.59	282.10
725.92	281.39
726.25	280.65
726.58	279.92
726.91	279.12
727.24	278.42
727.57	277.73
727.91	276.83
728.24	276.16
728.57	275.40
728.90	274.75
729.23	273.94
729.56	273.35
729.89	272.66
730.22	272.00
730.55	271.32
730.89	270.65
731.22	269.98
731.55	269.19
731.88	268.47
732.21	267.75
732.54	267.05
732.87	266.39
733.20	265.70
733.53	265.01
733.86	264.48
734.19	263.85
734.52	263.32
734.85	263.09
735.18	262.42
735.51	261.92
735.84	261.31
736.17	260.78
736.50	260.03
736.83	259.86
737.16	259.30
737.49	258.82
737.82	258.21
738.15	257.78
738.48	257.25
738.81	256.80
739.14	256.24
739.47	255.83
739.80	255.33
740.13	254.85
740.46	254.32
740.79	253.65
741.12	253.20
741.45	252.52
741.78	251.87
742.11	251.44
742.44	250.88
742.77	250.45
743.10	249.97
743.43	249.56
743.75	248.71
744.08	248.67
744.41	248.20
744.74	247.83
745.07	247.29
745.40	247.01
745.73	246.70
746.06	246.28
746.39	245.87
746.71	245.48
747.04	244.99
747.37	244.60
747.70	244.33
748.03	243.87
748.36	243.65
748.68	243.25
749.01	242.77
749.34	242.45
749.67	242.12
750.00	241.86
750.33	241.78
750.65	241.47
750.98	240.68
751.31	240.33
751.64	239.98
751.97	239.86
752.29	239.42
752.62	238.96
752.95	238.56
753.28	238.09
753.60	237.71
753.93	237.51
754.26	237.25
754.59	236.97
754.91	236.63
755.24	236.21
755.57	235.81
755.90	235.60
756.22	235.29
756.55	234.93
756.88	234.50
757.20	233.84
757.53	233.43
757.86	233.11
758.19	232.85
758.51	232.58
758.84	232.16
759.17	231.96
759.49	231.67
759.82	231.68
760.15	231.50
760.47	231.22
760.80	230.89
761.13	230.67
761.45	230.36
761.78	230.13
762.11	229.88
762.43	229.67
762.76	229.41
763.08	229.20
763.41	229.03
763.74	228.80
764.06	228.67
764.39	228.58
764.71	228.42
765.04	228.21
765.37	227.94
765.69	227.67
766.02	227.38
766.34	227.20
766.67	226.81
767.00	226.72
767.32	226.81
767.65	226.82
767.97	226.55
768.30	226.30
768.62	226.18
768.95	226.07
769.27	225.90
769.60	225.76
769.92	225.55
770.25	225.36
770.57	225.22
770.90	225.05
771.22	224.82
771.55	224.68
771.87	224.48
772.20	224.34
772.52	224.52
772.85	224.80
773.17	224.68
773.50	224.57
773.82	224.36
774.15	223.96
774.47	223.60
774.80	223.47
775.12	223.41
775.45	223.24
775.77	223.06
776.09	222.96
776.42	222.82
776.74	222.78
777.07	222.64
777.39	222.57
777.72	222.45
778.04	222.40
778.36	222.25
778.69	222.21
779.01	222.10
779.33	221.71
779.66	221.23
779.98	221.09
780.31	220.98
780.63	221.00
780.95	220.97
781.28	220.90
781.60	220.81
781.92	220.67
782.25	220.62
782.57	220.52
782.89	220.35
783.22	220.22
783.54	220.01
783.86	219.96
784.19	219.77
784.51	219.80
784.83	219.63
785.16	219.54
785.48	219.42
785.80	219.35
786.12	219.23
786.45	219.19
786.77	219.16
787.09	219.09
787.42	218.94
787.74	218.94
788.06	218.93
788.38	218.77
788.71	218.69
789.03	218.63
789.35	218.63
789.67	218.56
789.99	218.56
790.32	218.46
790.64	218.44
790.96	218.74
791.28	218.50
791.61	218.45
791.93	218.40
792.25	218.29
792.57	218.46
792.89	218.44
793.21	218.36
793.54	218.21
793.86	218.08
794.18	217.96
794.50	217.79
794.82	217.66
795.14	217.75
795.47	217.75
795.79	217.65
796.11	217.60
796.43	217.54
796.75	217.48
797.07	217.48
797.39	217.46
797.71	217.10
798.04	217.16
798.36	217.13
798.68	217.09
799.00	217.14
799.32	216.95
799.64	216.90
799.96	216.90
800.28	216.91
800.60	216.92
800.92	216.96
801.24	216.89
801.56	216.88
801.89	216.80
802.21	216.79
802.53	216.75
802.85	216.74
803.17	216.83
803.49	216.65
803.81	216.58
804.13	216.48
804.45	216.37
804.77	216.24
805.09	216.18
805.41	216.15
805.73	216.11
806.05	215.97
806.37	215.87
806.69	215.76
807.01	215.76
807.33	215.75
807.65	215.63
807.97	215.76
808.28	215.67
808.60	215.61
808.92	215.51
809.24	215.68
809.56	215.55
809.88	215.42
810.20	215.48
810.52	215.59
810.84	215.49
811.16	215.47
811.48	215.40
811.80	215.54
812.12	215.53
812.43	215.51
812.75	215.45
813.07	215.37
813.39	215.41
813.71	215.26
814.03	215.10
814.35	215.04
814.67	214.92
814.98	214.89
815.30	214.84
815.62	214.79
815.94	214.48
816.26	214.52
816.58	214.48
816.89	214.48
817.21	214.29
817.53	214.30
817.85	214.35
818.17	214.43
818.48	214.25
818.80	214.33
819.12	214.28
819.44	214.27
819.76	214.28
820.07	214.24
820.39	214.18
820.71	214.21
821.03	214.26
821.34	214.20
821.66	214.20
821.98	214.20
822.30	214.17
822.61	214.46
822.93	214.35
823.25	214.32
823.57	214.29
823.88	214.39
824.20	214.31
824.52	214.29
824.83	214.26
825.15	214.25
825.47	214.14
825.79	214.08
826.10	214.06
826.42	214.01
826.74	214.02
827.05	214.06
827.37	214.12
827.69	214.10
828.00	214.08
828.32	214.07
828.64	213.97
828.95	214.12
829.27	213.96
829.58	213.98
829.90	214.03
830.22	214.00
830.53	213.84
830.85	213.82
831.17	213.70
831.48	213.65
831.80	213.56
832.11	213.44
832.43	213.37
832.75	213.32
833.06	213.50
833.38	213.41
833.69	213.45
834.01	213.40
834.32	213.33
834.64	213.28
834.96	213.27
835.27	213.25
835.59	213.11
835.90	213.03
836.22	212.95
836.53	212.88
836.85	212.86
837.16	213.15
837.48	213.21
837.79	213.33
838.11	213.38
838.42	213.40
838.74	213.48
839.05	213.42
839.37	213.38
839.68	213.16
840.00	213.17
840.31	213.16
840.63	213.13
840.94	213.08
841.26	212.99
841.57	213.07
841.88	213.17
842.20	213.15
842.51	213.04
842.83	213.09
843.14	213.41
843.46	213.39
843.77	213.25
844.08	213.21
844.40	213.14
844.71	213.07
845.03	213.05
845.34	213.02
845.65	213.09
845.97	213.11
846.28	213.11
846.60	213.03
846.91	212.98
847.22	212.93
847.54	213.06
847.85	213.17
848.16	213.08
848.48	212.94
848.79	213.06
849.10	213.12
849.42	213.13
849.73	212.78
850.04	212.79
850.36	212.65
850.67	212.75
850.98	212.79
851.30	212.79
851.61	212.75
851.92	212.75
852.23	212.85
852.55	212.94
852.86	212.98
853.17	213.08
853.49	213.21
853.80	213.27
854.11	213.28
854.42	213.32
854.74	213.24
855.05	213.31
855.36	213.09
855.67	213.12
855.99	213.17
856.30	213.64
856.61	213.57
856.92	213.61
857.23	213.50
857.55	213.44
857.86	213.44
858.17	213.46
858.48	213.42
858.79	213.30
859.11	213.25
859.42	213.27
859.73	213.22
860.04	213.18
860.35	213.17
860.66	213.01
860.98	212.92
861.29	213.03
861.60	213.01
861.91	213.07
862.22	213.05
862.53	213.00
862.84	212.49
863.16	212.62
863.47	212.61
863.78	212.52
864.09	212.59
864.40	212.58
864.71	212.62
865.02	212.59
865.33	212.55
865.64	212.52
865.95	212.39
866.27	212.62
866.58	212.57
866.89	212.55
867.20	212.66
867.51	212.66
867.82	212.58
868.13	212.72
868.44	212.72
868.75	212.77
869.06	212.80
869.37	212.83
869.68	212.68
869.99	212.60
870.30	212.69
870.61	212.70
870.92	212.70
871.23	212.68
871.54	212.72
871.85	212.83
872.16	212.85
872.47	212.88
872.78	212.58
873.09	212.60
873.40	212.58
873.71	212.50
874.02	212.47
874.33	212.44
874.64	212.33
874.95	212.36
875.26	212.22
875.56	212.11
875.87	212.14
876.18	212.20
876.49	212.60
876.80	212.64
877.11	212.55
877.42	212.58
877.73	212.61
878.04	212.59
878.35	212.56
878.66	212.64
878.96	212.66
879.27	212.70
879.58	212.68
879.89	212.65
880.20	212.75
880.51	212.75
880.82	212.71
881.12	212.81
881.43	212.65
881.74	212.69
882.05	212.69
882.36	212.62
882.67	212.60
882.97	212.23
883.28	212.15
883.59	212.14
883.90	212.13
884.21	212.13
884.51	212.15
884.82	212.14
885.13	212.13
885.44	212.05
885.74	212.10
886.05	212.01
886.36	212.01
886.67	211.91
886.98	212.13
887.28	212.15
887.59	212.08
887.90	212.17
888.20	212.09
888.51	212.17
888.82	212.15
889.13	212.16
889.43	212.43
889.74	212.43
890.05	212.39
890.35	212.39
890.66	212.30
890.97	212.24
891.28	212.17
891.58	212.12
891.89	212.19
892.20	212.09
892.50	212.07
892.81	212.07
893.12	212.04
893.42	211.84
893.73	211.92
894.04	211.91
894.34	211.87
894.65	211.92
894.95	211.88
895.26	211.88
895.57	211.98
895.87	211.70
896.18	211.71
896.48	211.78
896.79	211.70
897.10	211.80
897.40	211.88
897.71	211.91
898.01	211.86
898.32	211.90
898.63	211.89
898.93	211.89
899.24	211.84
899.54	211.83
899.85	211.81
900.15	211.71
900.46	211.74
900.76	211.79
901.07	211.72
901.38	211.70
901.68	211.76
901.99	211.64
902.29	211.66
902.60	211.64
902.90	211.56
903.21	211.54
903.51	211.50
903.82	211.47
904.12	211.51
904.43	211.57
904.73	211.46
905.03	211.50
905.34	211.85
905.64	211.84
905.95	211.85
906.25	211.88
906.56	211.84
906.86	211.77
907.17	211.79
907.47	211.85
907.77	211.78
908.08	211.67
908.38	211.71
908.69	211.67
908.99	211.70
909.30	211.78
909.60	211.76
909.90	211.72
910.21	211.71
910.51	211.64
910.81	211.60
911.12	211.70
911.42	211.71
911.73	211.41
912.03	211.45
912.33	211.47
912.64	211.38
912.94	211.44
913.24	211.45
913.55	211.36
913.85	211.38
914.15	211.49
914.46	211.56
914.76	211.57
915.06	211.56
915.37	211.51
915.67	211.49
915.97	211.53
916.27	211.40
916.58	211.42
916.88	211.44
917.18	211.35
917.49	211.55
917.79	211.50
918.09	211.56
918.39	211.60
918.70	211.56
919.00	211.57
919.30	211.70
919.60	211.70
919.91	211.72
920.21	211.77
920.51	211.66
920.81	211.57
921.12	211.53
921.42	211.54
921.72	211.54
922.02	211.54
922.32	211.64
922.63	211.75
922.93	211.90
923.23	211.86
923.53	211.97
923.83	211.70
924.13	211.78
924.44	211.79
924.74	211.96
925.04	212.12
925.34	212.10
925.64	211.97
925.94	211.96
926.24	212.16
926.55	212.10
926.85	212.29
927.15	212.34
927.45	212.37
927.75	212.39
928.05	212.47
928.35	212.50
928.65	212.56
928.95	212.65
929.26	212.56
929.56	212.72
929.86	212.73
930.16	212.78
930.46	212.77
930.76	212.70
931.06	212.46
931.36	212.39
931.66	212.55
931.96	212.61
932.26	212.66
932.56	212.52
932.86	212.56
933.16	212.44
933.46	212.37
933.76	212.37
934.06	212.41
934.36	212.54
934.66	212.51
934.96	212.38
935.26	212.36
935.56	212.36
935.86	212.22
936.16	212.16
936.46	212.10
936.76	212.08
937.06	212.02
937.36	212.07
937.66	212.10
937.96	212.03
938.26	211.97
938.56	211.93
938.86	211.98
939.16	212.00
939.46	212.09
939.76	212.22
940.06	212.20
940.35	212.16
940.65	211.92
940.95	211.94
941.25	211.90
941.55	211.83
941.85	211.87
942.15	211.93
942.45	212.04
942.75	212.04
943.04	212.02
943.34	212.12
943.64	212.06
943.94	212.00
944.24	211.96
944.54	211.96
944.84	211.99
945.13	211.85
945.43	211.82
945.73	211.77
946.03	211.66
946.33	211.60
946.62	211.51
946.92	211.51
947.22	211.49
947.52	211.52
947.82	211.59
948.11	211.47
948.41	211.34
948.71	211.23
949.01	211.31
949.31	211.34
949.60	211.31
949.90	211.35
950.20	211.34
950.50	211.37
950.79	211.34
951.09	211.33
951.39	211.39
951.69	211.30
951.98	211.38
952.28	211.37
952.58	211.33
952.87	211.36
953.17	211.45
953.47	211.44
953.76	211.43
954.06	211.28
954.36	211.23
954.66	211.29
954.95	211.38
955.25	211.33
955.55	211.34
955.84	211.25
956.14	211.33
956.44	211.30
956.73	211.25
957.03	211.26
957.32	211.25
957.62	211.19
957.92	211.32
958.21	211.20
958.51	211.70
958.81	211.79
959.10	211.82
959.40	211.84
959.69	211.86
959.99	211.84
960.29	211.84
960.58	211.95
960.88	212.07
961.17	212.02
961.47	212.03
961.76	212.04
962.06	212.11
962.36	211.98
962.65	212.06
962.95	212.13
963.24	212.11
963.54	212.10
963.83	212.13
964.13	212.02
964.42	212.01
964.72	211.65
965.01	211.65
965.31	211.67
965.60	211.62
965.90	211.77
966.19	211.75
966.49	211.79
966.78	211.69
967.08	211.65
967.37	211.69
967.67	211.65
967.96	211.68
968.26	211.70
968.55	211.82
968.85	211.71
969.14	211.71
969.43	211.63
969.73	211.58
970.02	211.59
970.32	211.57
970.61	211.49
970.91	211.42
971.20	211.39
971.49	211.33
971.79	211.33
972.08	211.12
972.38	211.20
972.67	211.19
972.96	211.20
973.26	211.09
973.55	211.14
973.85	211.08
974.14	210.96
974.43	210.98
974.73	210.90
975.02	210.87
975.31	210.82
975.61	210.93
975.90	210.90
976.19	210.89
976.49	210.94
976.78	211.03
977.07	211.04
977.37	210.98
977.66	211.02
977.95	210.93
978.24	210.88
978.54	210.89
978.83	210.87
979.12	210.90
979.42	210.97
979.71	210.90
980.00	210.94
980.29	211.00
980.59	210.90
980.88	210.96
981.17	211.01
981.46	211.00
981.76	210.90
982.05	211.02
982.34	211.02
982.63	211.01
982.93	210.93
983.22	211.02
983.51	211.06
983.80	211.03
984.09	211.09
984.39	211.17
984.68	211.14
984.97	211.15
985.26	211.09
985.55	211.06
985.85	210.98
986.14	211.01
986.43	211.04
986.72	211.03
987.01	210.93
987.30	210.94
987.59	210.88
987.89	210.97
988.18	210.89
988.47	210.87
988.76	210.90
989.05	210.94
989.34	210.86
989.63	210.99
989.92	210.99
990.22	210.97
990.51	210.87
990.80	210.87
991.09	210.89
991.38	210.92
991.67	210.95
991.96	210.90
992.25	210.89
992.54	210.82
992.83	210.79
993.12	210.77
993.41	210.82
993.70	211.03
993.99	211.08
994.28	211.10
994.58	211.14
994.87	211.07
995.16	211.09
995.45	211.08
995.74	210.99
996.03	211.03
996.32	211.12
996.61	211.25
996.90	211.18
997.19	211.15
997.48	211.10
997.77	211.00
998.06	211.10
998.34	211.08
998.63	211.09
998.92	211.14
999.21	211.27
999.50	211.26
999.79	211.10
1000.08	211.08
1000.37	211.09
1000.66	211.12
1000.95	211.18
1001.24	211.21
1001.53	211.27
1001.82	211.26
1002.11	211.20
1002.40	211.21
1002.68	211.33
1002.97	211.61
1003.26	211.58
1003.55	211.59
1003.84	211.61
1004.13	211.69
1004.42	211.71
1004.71	211.75
1004.99	211.71
1005.28	211.69
1005.57	211.71
1005.86	211.68
1006.15	211.65
1006.44	211.62
1006.72	211.58
1007.01	211.57
1007.30	211.49
1007.59	211.39
1007.88	211.35
1008.17	211.38
1008.45	211.29
1008.74	211.13
1009.03	210.96
1009.32	210.98
1009.60	211.00
1009.89	210.98
1010.18	210.91
1010.47	210.87
1010.76	210.86
1011.04	210.79
1011.33	211.18
1011.62	211.14
1011.91	211.18
1012.19	211.22
1012.48	211.19
1012.77	211.21
1013.05	211.35
1013.34	211.34
1013.63	211.39
1013.92	211.45
1014.20	211.46
1014.49	211.58
1014.78	211.64
1015.06	211.55
1015.35	211.54
1015.64	211.63
1015.92	211.67
1016.21	211.69
1016.50	211.66
1016.78	211.61
1017.07	211.76
1017.36	211.32
1017.64	211.29
1017.93	211.26
1018.22	211.17
1018.50	211.20
1018.79	211.20
1019.08	211.01
1019.36	211.07
1019.65	211.03
1019.93	211.13
1020.22	211.17
1020.51	211.25
1020.79	211.20
1021.08	209.60
1021.36	210.90
1021.65	211.05
1021.94	210.30
1022.22	211.40
1022.51	210.55
1022.79	213.50
1023.08	212.25
1023.36	215.05
1023.65	210.65
>>>>>End Processed Spectral Data<<<<<
