SpectraSuite Data File
++++++++++++++++++++++++++++++++++++
Date: Fri Feb 01 16:34:25 EST 2013
User: group
Dark Spectrum Present: No
Reference Spectrum Present: No
Number of Sampled Component Spectra: 1
Spectrometers: USB2E7196
Integration Time (usec): 35000 (USB2E7196)
Spectra Averaged: 100 (USB2E7196)
Boxcar Smoothing: 10 (USB2E7196)
Correct for Electrical Dark: No (USB2E7196)
Strobe/Lamp Enabled: No (USB2E7196)
Correct for Detector Non-linearity: No (USB2E7196)
Correct for Stray Light: No (USB2E7196)
Number of Pixels in Processed Spectrum: 2048
>>>>>Begin Processed Spectral Data<<<<<
339.09	0.00
339.48	214.08
339.86	215.52
340.24	217.12
340.63	217.87
341.01	221.01
341.39	220.61
341.78	222.01
342.16	223.02
342.54	224.16
342.93	212.36
343.31	223.10
343.69	223.63
344.07	224.10
344.46	224.50
344.84	224.85
345.22	225.06
345.60	225.29
345.99	225.42
346.37	225.52
346.75	225.57
347.13	225.56
347.52	225.59
347.90	225.67
348.28	225.61
348.66	225.63
349.05	225.55
349.43	225.56
349.81	225.52
350.19	225.50
350.57	225.50
350.96	225.50
351.34	225.53
351.72	225.57
352.10	225.61
352.48	225.65
352.87	225.68
353.25	225.67
353.63	225.72
354.01	225.77
354.39	225.86
354.77	225.91
355.15	226.00
355.54	226.03
355.92	226.05
356.30	226.12
356.68	226.26
357.06	226.30
357.44	226.33
357.82	226.40
358.20	226.43
358.58	226.46
358.97	226.55
359.35	226.54
359.73	226.62
360.11	226.65
360.49	226.69
360.87	226.74
361.25	226.81
361.63	226.86
362.01	226.89
362.39	226.86
362.77	226.88
363.15	226.90
363.53	226.89
363.91	226.87
364.29	226.87
364.67	226.75
365.05	226.79
365.43	226.82
365.81	226.84
366.19	226.88
366.57	226.89
366.95	226.88
367.33	226.87
367.71	226.83
368.09	226.82
368.47	226.79
368.85	226.75
369.23	226.74
369.61	226.66
369.99	226.70
370.37	226.68
370.75	226.70
371.13	226.63
371.51	226.61
371.89	226.59
372.27	226.57
372.65	226.54
373.03	226.46
373.41	226.40
373.78	226.36
374.16	226.24
374.54	226.16
374.92	226.07
375.30	226.05
375.68	225.95
376.06	225.88
376.44	225.79
376.82	225.74
377.19	225.70
377.57	225.66
377.95	225.55
378.33	225.47
378.71	225.36
379.09	225.29
379.47	225.24
379.84	225.17
380.22	225.10
380.60	225.06
380.98	225.02
381.36	224.95
381.73	224.84
382.11	224.81
382.49	224.77
382.87	224.71
383.25	224.62
383.62	224.67
384.00	224.63
384.38	224.59
384.76	224.57
385.13	224.52
385.51	224.46
385.89	224.41
386.27	224.35
386.64	224.30
387.02	224.26
387.40	224.20
387.78	224.17
388.15	224.12
388.53	224.06
388.91	224.01
389.29	223.96
389.66	223.94
390.04	223.90
390.42	223.87
390.79	223.86
391.17	223.87
391.55	223.76
391.92	223.72
392.30	223.72
392.68	223.66
393.05	223.64
393.43	223.65
393.81	223.65
394.18	223.67
394.56	223.68
394.94	223.72
395.31	223.75
395.69	223.78
396.06	223.80
396.44	223.80
396.82	223.81
397.19	223.86
397.57	223.86
397.95	223.91
398.32	223.92
398.70	223.94
399.07	223.97
399.45	223.99
399.82	224.01
400.20	223.98
400.58	224.04
400.95	224.02
401.33	224.06
401.70	224.15
402.08	224.18
402.45	224.17
402.83	224.20
403.20	224.20
403.58	224.20
403.95	224.22
404.33	224.26
404.71	224.28
405.08	224.33
405.46	224.36
405.83	224.38
406.21	224.43
406.58	224.43
406.96	224.44
407.33	224.51
407.70	224.56
408.08	224.69
408.45	224.74
408.83	224.78
409.20	224.78
409.58	224.73
409.95	224.77
410.33	224.81
410.70	224.79
411.08	224.82
411.45	224.83
411.82	224.82
412.20	224.86
412.57	224.91
412.95	224.85
413.32	224.87
413.69	224.86
414.07	224.86
414.44	224.88
414.82	224.86
415.19	224.86
415.56	224.84
415.94	224.77
416.31	224.73
416.68	224.74
417.06	224.76
417.43	224.77
417.81	224.73
418.18	224.74
418.55	224.73
418.93	224.71
419.30	224.73
419.67	224.74
420.04	224.70
420.42	224.66
420.79	224.76
421.16	224.76
421.54	224.82
421.91	224.80
422.28	224.81
422.66	224.81
423.03	224.86
423.40	224.87
423.77	224.87
424.15	224.88
424.52	224.86
424.89	224.87
425.26	224.81
425.64	224.81
426.01	224.80
426.38	224.80
426.75	224.86
427.13	224.83
427.50	224.83
427.87	224.81
428.24	224.81
428.61	224.72
428.99	224.70
429.36	224.60
429.73	224.58
430.10	224.56
430.47	224.58
430.85	224.48
431.22	224.47
431.59	224.53
431.96	224.51
432.33	224.48
432.70	224.46
433.08	224.45
433.45	224.47
433.82	224.44
434.19	224.45
434.56	224.41
434.93	224.40
435.30	224.38
435.68	224.39
436.05	224.36
436.42	224.36
436.79	224.39
437.16	224.42
437.53	224.40
437.90	224.39
438.27	224.40
438.64	224.40
439.01	224.39
439.38	224.30
439.75	224.31
440.13	224.34
440.50	224.31
440.87	224.35
441.24	224.31
441.61	224.29
441.98	224.28
442.35	224.24
442.72	224.27
443.09	224.32
443.46	224.30
443.83	224.34
444.20	224.33
444.57	224.30
444.94	224.31
445.31	224.38
445.68	224.55
446.05	224.51
446.42	224.51
446.79	224.56
447.16	224.58
447.53	224.61
447.90	224.62
448.27	224.66
448.64	224.68
449.01	224.74
449.37	224.80
449.74	224.83
450.11	225.00
450.48	224.99
450.85	224.97
451.22	224.97
451.59	225.00
451.96	225.02
452.33	225.05
452.70	225.08
453.07	225.05
453.43	224.94
453.80	224.99
454.17	225.05
454.54	225.04
454.91	225.08
455.28	225.06
455.65	225.06
456.02	225.25
456.38	225.27
456.75	225.26
457.12	225.25
457.49	225.24
457.86	225.13
458.23	225.20
458.59	225.22
458.96	225.28
459.33	225.27
459.70	225.29
460.07	225.33
460.43	225.32
460.80	225.38
461.17	225.43
461.54	225.47
461.91	225.48
462.27	225.47
462.64	225.44
463.01	225.50
463.38	225.54
463.74	225.34
464.11	225.36
464.48	225.40
464.85	225.44
465.21	225.49
465.58	225.50
465.95	225.46
466.32	225.48
466.68	225.47
467.05	225.49
467.42	225.48
467.78	225.45
468.15	225.47
468.52	225.48
468.88	225.41
469.25	225.37
469.62	225.38
469.98	225.36
470.35	225.34
470.72	225.34
471.08	225.30
471.45	225.34
471.82	225.33
472.18	225.29
472.55	225.24
472.92	225.20
473.28	225.19
473.65	225.19
474.02	225.15
474.38	225.14
474.75	225.12
475.11	225.11
475.48	225.09
475.85	225.04
476.21	224.99
476.58	224.99
476.94	224.94
477.31	224.90
477.67	224.95
478.04	224.94
478.41	224.91
478.77	225.01
479.14	224.99
479.50	224.99
479.87	224.99
480.23	224.97
480.60	224.97
480.96	224.99
481.33	225.01
481.69	225.00
482.06	225.02
482.42	225.04
482.79	225.08
483.15	225.10
483.52	225.12
483.88	225.12
484.25	225.15
484.61	225.17
484.98	225.15
485.34	225.16
485.71	225.19
486.07	225.14
486.44	225.01
486.80	225.02
487.17	225.03
487.53	225.06
487.90	225.12
488.26	225.14
488.62	225.17
488.99	225.15
489.35	225.18
489.72	225.17
490.08	225.16
490.44	225.11
490.81	225.12
491.17	225.11
491.54	225.13
491.90	225.12
492.26	225.13
492.63	225.18
492.99	225.15
493.36	225.15
493.72	225.22
494.08	225.26
494.45	225.26
494.81	225.22
495.17	225.18
495.54	225.15
495.90	225.15
496.26	225.12
496.63	225.15
496.99	225.17
497.35	225.16
497.72	225.16
498.08	225.16
498.44	225.16
498.80	225.18
499.17	225.15
499.53	225.15
499.89	225.16
500.26	225.17
500.62	225.21
500.98	225.21
501.34	225.20
501.71	225.23
502.07	225.24
502.43	225.23
502.79	225.24
503.16	225.24
503.52	225.20
503.88	225.18
504.24	225.20
504.60	225.16
504.97	225.19
505.33	225.20
505.69	225.22
506.05	225.23
506.41	225.24
506.78	225.25
507.14	225.27
507.50	225.31
507.86	225.29
508.22	225.30
508.59	225.30
508.95	225.33
509.31	225.36
509.67	225.36
510.03	225.39
510.39	225.40
510.75	225.40
511.12	225.44
511.48	225.45
511.84	225.42
512.20	225.43
512.56	225.41
512.92	225.40
513.28	225.42
513.64	225.40
514.00	225.39
514.37	225.39
514.73	225.39
515.09	225.38
515.45	225.37
515.81	225.32
516.17	225.32
516.53	225.32
516.89	225.26
517.25	225.26
517.61	225.29
517.97	225.29
518.33	225.32
518.69	225.33
519.05	225.34
519.41	225.35
519.77	225.39
520.13	225.41
520.49	225.41
520.85	225.41
521.21	225.48
521.57	225.54
521.93	225.54
522.29	225.54
522.65	225.50
523.01	225.53
523.37	225.56
523.73	225.53
524.09	225.51
524.45	225.54
524.81	225.53
525.17	225.49
525.53	225.52
525.89	225.52
526.25	225.51
526.61	225.48
526.97	225.43
527.33	225.41
527.68	225.49
528.04	225.49
528.40	225.46
528.76	225.40
529.12	225.35
529.48	225.37
529.84	225.36
530.20	225.36
530.56	225.35
530.91	225.37
531.27	225.37
531.63	225.37
531.99	225.32
532.35	225.35
532.71	225.40
533.07	225.38
533.42	225.47
533.78	225.48
534.14	225.52
534.50	225.57
534.86	225.58
535.21	225.49
535.57	225.55
535.93	225.56
536.29	225.67
536.65	225.71
537.00	225.72
537.36	225.77
537.72	225.84
538.08	225.88
538.44	225.92
538.79	226.03
539.15	226.09
539.51	226.17
539.87	226.23
540.22	226.26
540.58	226.33
540.94	226.31
541.29	226.37
541.65	226.41
542.01	226.50
542.37	226.57
542.72	226.62
543.08	226.61
543.44	226.65
543.79	226.59
544.15	226.63
544.51	226.68
544.87	226.69
545.22	226.70
545.58	226.66
545.94	226.64
546.29	226.64
546.65	226.57
547.01	226.54
547.36	226.51
547.72	226.46
548.07	226.42
548.43	226.36
548.79	226.28
549.14	226.25
549.50	226.21
549.86	226.12
550.21	226.12
550.57	226.09
550.92	226.04
551.28	226.00
551.64	225.96
551.99	225.93
552.35	225.89
552.70	225.83
553.06	225.79
553.41	225.77
553.77	225.79
554.13	225.81
554.48	225.82
554.84	225.79
555.19	225.77
555.55	225.80
555.90	225.77
556.26	225.80
556.61	225.76
556.97	225.71
557.32	225.69
557.68	225.64
558.03	225.66
558.39	225.67
558.74	225.68
559.10	225.65
559.45	225.63
559.81	225.61
560.16	225.57
560.52	225.58
560.87	225.59
561.23	225.54
561.58	225.58
561.94	225.54
562.29	225.52
562.64	225.55
563.00	225.47
563.35	225.46
563.71	225.42
564.06	225.45
564.42	225.45
564.77	225.46
565.12	225.47
565.48	225.51
565.83	225.51
566.19	225.51
566.54	225.53
566.89	225.53
567.25	225.59
567.60	225.70
567.96	225.80
568.31	225.83
568.66	225.86
569.02	225.80
569.37	225.81
569.72	225.82
570.08	225.83
570.43	225.84
570.78	225.86
571.14	225.87
571.49	225.87
571.84	225.91
572.20	225.93
572.55	225.96
572.90	225.89
573.26	225.88
573.61	225.89
573.96	225.89
574.31	225.88
574.67	225.86
575.02	225.79
575.37	225.71
575.72	225.64
576.08	225.63
576.43	225.66
576.78	225.68
577.13	225.72
577.49	225.71
577.84	225.73
578.19	225.75
578.54	225.78
578.90	225.78
579.25	225.78
579.60	225.81
579.95	225.80
580.30	225.85
580.66	225.89
581.01	225.91
581.36	225.91
581.71	225.93
582.06	225.95
582.42	225.97
582.77	226.00
583.12	226.05
583.47	226.04
583.82	226.06
584.17	226.09
584.53	226.10
584.88	226.12
585.23	226.21
585.58	226.23
585.93	226.24
586.28	226.26
586.63	226.27
586.98	226.28
587.34	226.31
587.69	226.30
588.04	226.30
588.39	226.33
588.74	226.34
589.09	226.37
589.44	226.32
589.79	226.35
590.14	226.33
590.49	226.28
590.84	226.25
591.19	226.21
591.54	226.19
591.89	226.15
592.25	226.22
592.60	226.16
592.95	226.15
593.30	226.16
593.65	226.17
594.00	226.13
594.35	226.39
594.70	226.36
595.05	226.33
595.40	226.30
595.75	226.24
596.10	226.22
596.45	226.20
596.80	226.21
597.15	226.19
597.50	226.16
597.85	226.23
598.19	226.26
598.54	226.28
598.89	226.25
599.24	226.26
599.59	226.16
599.94	226.14
600.29	226.15
600.64	226.13
600.99	226.14
601.34	226.14
601.69	225.84
602.04	225.85
602.39	225.84
602.74	225.86
603.08	225.88
603.43	225.89
603.78	225.87
604.13	225.87
604.48	225.85
604.83	225.90
605.18	225.87
605.53	225.90
605.87	225.93
606.22	226.00
606.57	226.05
606.92	226.09
607.27	226.18
607.62	226.21
607.96	226.25
608.31	226.27
608.66	226.28
609.01	226.31
609.36	226.35
609.70	226.44
610.05	226.46
610.40	226.52
610.75	226.55
611.10	226.61
611.44	226.65
611.79	226.69
612.14	226.70
612.49	226.71
612.83	226.71
613.18	226.66
613.53	226.63
613.88	226.60
614.22	226.56
614.57	226.49
614.92	226.47
615.27	226.42
615.61	226.38
615.96	226.39
616.31	226.37
616.65	226.37
617.00	226.30
617.35	226.27
617.70	226.22
618.04	226.17
618.39	226.13
618.74	226.12
619.08	226.07
619.43	226.03
619.78	226.00
620.12	225.97
620.47	225.97
620.82	225.96
621.16	225.94
621.51	226.01
621.85	226.00
622.20	225.98
622.55	225.97
622.89	225.97
623.24	225.95
623.59	225.97
623.93	225.92
624.28	225.93
624.62	226.06
624.97	226.09
625.32	226.13
625.66	226.10
626.01	226.10
626.35	226.10
626.70	226.09
627.04	226.12
627.39	226.13
627.73	226.15
628.08	226.12
628.43	226.11
628.77	226.05
629.12	226.02
629.46	226.00
629.81	226.00
630.15	225.97
630.50	225.93
630.84	225.89
631.19	225.90
631.53	225.91
631.88	225.75
632.22	225.69
632.57	225.66
632.91	225.66
633.26	225.64
633.60	225.63
633.95	225.64
634.29	225.57
634.64	225.57
634.98	225.53
635.32	225.55
635.67	225.54
636.01	225.53
636.36	225.53
636.70	225.56
637.05	225.56
637.39	225.55
637.73	225.58
638.08	225.60
638.42	225.58
638.77	225.58
639.11	225.59
639.45	225.57
639.80	225.55
640.14	225.57
640.49	225.54
640.83	225.53
641.17	225.55
641.52	225.55
641.86	225.54
642.20	225.58
642.55	225.53
642.89	225.53
643.23	225.55
643.58	225.58
643.92	225.55
644.26	225.54
644.61	225.56
644.95	225.59
645.29	225.61
645.64	225.63
645.98	225.61
646.32	225.65
646.66	225.67
647.01	225.70
647.35	225.70
647.69	225.72
648.04	225.76
648.38	225.78
648.72	225.78
649.06	225.78
649.41	225.77
649.75	225.77
650.09	225.80
650.43	225.78
650.78	225.76
651.12	225.77
651.46	225.78
651.80	225.78
652.14	225.75
652.49	225.79
652.83	225.77
653.17	225.79
653.51	225.73
653.85	225.76
654.20	225.75
654.54	225.71
654.88	225.69
655.22	225.65
655.56	225.63
655.90	225.65
656.25	225.65
656.59	225.65
656.93	225.69
657.27	225.71
657.61	225.70
657.95	225.71
658.29	225.70
658.64	225.76
658.98	225.74
659.32	225.74
659.66	225.68
660.00	225.68
660.34	225.67
660.68	225.70
661.02	225.67
661.36	225.70
661.70	225.71
662.05	225.72
662.39	225.78
662.73	225.80
663.07	225.86
663.41	225.86
663.75	225.84
664.09	225.85
664.43	225.79
664.77	225.81
665.11	225.77
665.45	225.78
665.79	225.77
666.13	225.76
666.47	225.73
666.81	225.76
667.15	225.76
667.49	225.72
667.83	225.76
668.17	225.77
668.51	225.75
668.85	225.79
669.19	225.84
669.53	225.79
669.87	225.75
670.21	225.72
670.55	225.70
670.89	225.76
671.23	225.71
671.57	225.74
671.91	225.73
672.25	225.78
672.58	225.82
672.92	225.76
673.26	225.76
673.60	225.77
673.94	225.74
674.28	225.73
674.62	225.77
674.96	225.74
675.30	225.77
675.64	225.75
675.97	225.71
676.31	225.67
676.65	225.65
676.99	225.71
677.33	225.64
677.67	225.65
678.01	225.61
678.34	225.64
678.68	225.64
679.02	225.63
679.36	225.56
679.70	225.52
680.04	225.57
680.37	225.59
680.71	225.58
681.05	225.61
681.39	225.64
681.73	225.64
682.06	225.60
682.40	225.59
682.74	225.61
683.08	225.63
683.42	225.62
683.75	225.65
684.09	225.63
684.43	225.65
684.77	225.65
685.10	225.63
685.44	225.64
685.78	225.66
686.12	225.68
686.45	225.75
686.79	225.74
687.13	225.73
687.46	225.70
687.80	225.73
688.14	225.72
688.48	225.70
688.81	225.71
689.15	225.80
689.49	225.77
689.82	225.78
690.16	225.75
690.50	225.78
690.83	225.77
691.17	225.74
691.51	225.78
691.84	225.80
692.18	225.82
692.52	225.78
692.85	225.76
693.19	225.75
693.52	225.70
693.86	225.69
694.20	225.66
694.53	225.69
694.87	225.67
695.21	225.64
695.54	225.68
695.88	225.63
696.21	225.56
696.55	225.59
696.88	225.55
697.22	225.54
697.56	225.52
697.89	225.49
698.23	225.52
698.56	225.53
698.90	225.51
699.23	225.51
699.57	225.53
699.90	225.48
700.24	225.50
700.58	225.52
700.91	225.54
701.25	225.63
701.58	225.67
701.92	225.68
702.25	225.70
702.59	225.66
702.92	225.68
703.26	225.69
703.59	225.66
703.93	225.79
704.26	225.80
704.60	225.83
704.93	225.83
705.26	225.83
705.60	225.82
705.93	225.82
706.27	225.84
706.60	225.86
706.94	225.92
707.27	225.89
707.61	225.91
707.94	225.92
708.27	225.84
708.61	225.78
708.94	225.77
709.28	225.77
709.61	225.78
709.94	225.76
710.28	225.74
710.61	225.74
710.95	225.62
711.28	225.70
711.61	225.63
711.95	225.69
712.28	225.67
712.61	225.64
712.95	225.68
713.28	225.72
713.61	225.70
713.95	225.66
714.28	225.70
714.61	225.70
714.95	225.67
715.28	225.62
715.61	225.61
715.95	225.61
716.28	225.58
716.61	225.56
716.95	225.56
717.28	225.56
717.61	225.54
717.94	225.52
718.28	225.42
718.61	225.44
718.94	225.38
719.27	225.36
719.61	225.39
719.94	225.34
720.27	225.27
720.60	225.25
720.94	225.23
721.27	225.21
721.60	225.19
721.93	225.22
722.27	225.29
722.60	225.31
722.93	225.31
723.26	225.34
723.59	225.35
723.93	225.35
724.26	225.38
724.59	225.39
724.92	225.41
725.25	225.46
725.59	225.50
725.92	225.55
726.25	225.55
726.58	225.54
726.91	225.55
727.24	225.55
727.57	225.56
727.91	225.56
728.24	225.56
728.57	225.57
728.90	225.57
729.23	225.54
729.56	225.58
729.89	225.59
730.22	225.61
730.55	225.61
730.89	225.62
731.22	225.60
731.55	225.61
731.88	225.61
732.21	225.58
732.54	225.55
732.87	225.52
733.20	225.54
733.53	225.52
733.86	225.57
734.19	225.58
734.52	225.61
734.85	225.70
735.18	225.68
735.51	225.72
735.84	225.71
736.17	225.75
736.50	225.68
736.83	225.79
737.16	225.77
737.49	225.78
737.82	225.79
738.15	225.81
738.48	225.81
738.81	225.82
739.14	225.81
739.47	225.83
739.80	225.84
740.13	225.84
740.46	225.81
740.79	225.75
741.12	225.73
741.45	225.69
741.78	225.63
742.11	225.64
742.44	225.60
742.77	225.60
743.10	225.56
743.43	225.58
743.75	225.49
744.08	225.62
744.41	225.59
744.74	225.54
745.07	225.52
745.40	225.53
745.73	225.56
746.06	225.58
746.39	225.59
746.71	225.58
747.04	225.56
747.37	225.61
747.70	225.63
748.03	225.62
748.36	225.64
748.68	225.62
749.01	225.58
749.34	225.57
749.67	225.57
750.00	225.57
750.33	225.62
750.65	225.60
750.98	225.45
751.31	225.47
751.64	225.50
751.97	225.58
752.29	225.57
752.62	225.53
752.95	225.51
753.28	225.47
753.60	225.47
753.93	225.53
754.26	225.56
754.59	225.52
754.91	225.52
755.24	225.51
755.57	225.53
755.90	225.57
756.22	225.55
756.55	225.57
756.88	225.56
757.20	225.52
757.53	225.51
757.86	225.51
758.19	225.50
758.51	225.53
758.84	225.47
759.17	225.43
759.49	225.41
759.82	225.45
760.15	225.48
760.47	225.46
760.80	225.41
761.13	225.37
761.45	225.37
761.78	225.36
762.11	225.38
762.43	225.40
762.76	225.40
763.08	225.43
763.41	225.43
763.74	225.46
764.06	225.43
764.39	225.43
764.71	225.41
765.04	225.40
765.37	225.38
765.69	225.38
766.02	225.39
766.34	225.43
766.67	225.41
767.00	225.40
767.32	225.47
767.65	225.56
767.97	225.59
768.30	225.60
768.62	225.64
768.95	225.62
769.27	225.59
769.60	225.60
769.92	225.57
770.25	225.56
770.57	225.55
770.90	225.59
771.22	225.61
771.55	225.65
771.87	225.67
772.20	225.68
772.52	225.77
772.85	225.88
773.17	225.89
773.50	225.85
773.82	225.84
774.15	225.78
774.47	225.70
774.80	225.67
775.12	225.67
775.45	225.66
775.77	225.68
776.09	225.70
776.42	225.69
776.74	225.73
777.07	225.76
777.39	225.75
777.72	225.74
778.04	225.74
778.36	225.71
778.69	225.70
779.01	225.71
779.33	225.61
779.66	225.50
779.98	225.50
780.31	225.56
780.63	225.63
780.95	225.67
781.28	225.68
781.60	225.68
781.92	225.71
782.25	225.70
782.57	225.71
782.89	225.70
783.22	225.71
783.54	225.67
783.86	225.67
784.19	225.71
784.51	225.69
784.83	225.67
785.16	225.66
785.48	225.70
785.80	225.70
786.12	225.74
786.45	225.73
786.77	225.72
787.09	225.67
787.42	225.62
787.74	225.62
788.06	225.63
788.38	225.61
788.71	225.59
789.03	225.61
789.35	225.61
789.67	225.58
789.99	225.59
790.32	225.58
790.64	225.57
790.96	225.65
791.28	225.67
791.61	225.66
791.93	225.69
792.25	225.66
792.57	225.71
792.89	225.67
793.21	225.66
793.54	225.67
793.86	225.71
794.18	225.72
794.50	225.71
794.82	225.73
795.14	225.74
795.47	225.75
795.79	225.74
796.11	225.72
796.43	225.76
796.75	225.72
797.07	225.77
797.39	225.77
797.71	225.65
798.04	225.64
798.36	225.68
798.68	225.69
799.00	225.73
799.32	225.67
799.64	225.67
799.96	225.72
800.28	225.73
800.60	225.71
800.92	225.71
801.24	225.70
801.56	225.67
801.89	225.68
802.21	225.69
802.53	225.69
802.85	225.68
803.17	225.72
803.49	225.72
803.81	225.68
804.13	225.65
804.45	225.65
804.77	225.65
805.09	225.63
805.41	225.59
805.73	225.57
806.05	225.58
806.37	225.59
806.69	225.56
807.01	225.56
807.33	225.60
807.65	225.55
807.97	225.59
808.28	225.59
808.60	225.61
808.92	225.59
809.24	225.67
809.56	225.68
809.88	225.65
810.20	225.65
810.52	225.66
810.84	225.70
811.16	225.70
811.48	225.73
811.80	225.77
812.12	225.76
812.43	225.75
812.75	225.77
813.07	225.78
813.39	225.77
813.71	225.76
814.03	225.73
814.35	225.77
814.67	225.74
814.98	225.76
815.30	225.73
815.62	225.74
815.94	225.67
816.26	225.71
816.58	225.67
816.89	225.70
817.21	225.71
817.53	225.68
817.85	225.71
818.17	225.70
818.48	225.67
818.80	225.70
819.12	225.73
819.44	225.71
819.76	225.71
820.07	225.73
820.39	225.74
820.71	225.74
821.03	225.75
821.34	225.74
821.66	225.72
821.98	225.72
822.30	225.70
822.61	225.77
822.93	225.73
823.25	225.74
823.57	225.77
823.88	225.75
824.20	225.78
824.52	225.79
824.83	225.78
825.15	225.77
825.47	225.78
825.79	225.75
826.10	225.72
826.42	225.69
826.74	225.69
827.05	225.68
827.37	225.69
827.69	225.65
828.00	225.64
828.32	225.63
828.64	225.64
828.95	225.69
829.27	225.64
829.58	225.64
829.90	225.66
830.22	225.62
830.53	225.60
830.85	225.60
831.17	225.56
831.48	225.55
831.80	225.54
832.11	225.52
832.43	225.51
832.75	225.55
833.06	225.63
833.38	225.58
833.69	225.56
834.01	225.56
834.32	225.56
834.64	225.57
834.96	225.59
835.27	225.58
835.59	225.56
835.90	225.54
836.22	225.52
836.53	225.50
836.85	225.49
837.16	225.57
837.48	225.56
837.79	225.59
838.11	225.59
838.42	225.60
838.74	225.62
839.05	225.62
839.37	225.59
839.68	225.53
840.00	225.54
840.31	225.57
840.63	225.52
840.94	225.50
841.26	225.50
841.57	225.47
841.88	225.47
842.20	225.46
842.51	225.48
842.83	225.46
843.14	225.55
843.46	225.57
843.77	225.55
844.08	225.56
844.40	225.55
844.71	225.53
845.03	225.54
845.34	225.52
845.65	225.53
845.97	225.54
846.28	225.55
846.60	225.59
846.91	225.58
847.22	225.61
847.54	225.66
847.85	225.67
848.16	225.68
848.48	225.69
848.79	225.72
849.10	225.73
849.42	225.79
849.73	225.69
850.04	225.70
850.36	225.68
850.67	225.70
850.98	225.70
851.30	225.73
851.61	225.75
851.92	225.75
852.23	225.80
852.55	225.82
852.86	225.83
853.17	225.82
853.49	225.85
853.80	225.87
854.11	225.88
854.42	225.91
854.74	225.89
855.05	225.87
855.36	225.85
855.67	225.85
855.99	225.86
856.30	225.97
856.61	225.97
856.92	225.97
857.23	225.99
857.55	226.00
857.86	226.04
858.17	226.03
858.48	226.05
858.79	226.04
859.11	226.08
859.42	226.06
859.73	226.07
860.04	226.07
860.35	226.08
860.66	226.06
860.98	226.07
861.29	226.10
861.60	226.11
861.91	226.13
862.22	226.11
862.53	226.09
862.84	226.01
863.16	226.00
863.47	225.98
863.78	225.97
864.09	225.95
864.40	225.94
864.71	225.94
865.02	225.96
865.33	225.94
865.64	225.90
865.95	225.89
866.27	225.96
866.58	225.96
866.89	225.94
867.20	225.95
867.51	225.89
867.82	225.92
868.13	225.96
868.44	225.92
868.75	225.95
869.06	225.95
869.37	225.90
869.68	225.89
869.99	225.92
870.30	225.88
870.61	225.90
870.92	225.86
871.23	225.86
871.54	225.86
871.85	225.86
872.16	225.86
872.47	225.85
872.78	225.77
873.09	225.75
873.40	225.74
873.71	225.71
874.02	225.73
874.33	225.71
874.64	225.68
874.95	225.70
875.26	225.67
875.56	225.65
875.87	225.67
876.18	225.65
876.49	225.73
876.80	225.73
877.11	225.69
877.42	225.71
877.73	225.70
878.04	225.64
878.35	225.64
878.66	225.64
878.96	225.66
879.27	225.65
879.58	225.65
879.89	225.63
880.20	225.69
880.51	225.70
880.82	225.68
881.12	225.69
881.43	225.66
881.74	225.67
882.05	225.71
882.36	225.73
882.67	225.75
882.97	225.63
883.28	225.62
883.59	225.64
883.90	225.67
884.21	225.65
884.51	225.65
884.82	225.63
885.13	225.64
885.44	225.65
885.74	225.69
886.05	225.69
886.36	225.66
886.67	225.60
886.98	225.63
887.28	225.62
887.59	225.60
887.90	225.62
888.20	225.62
888.51	225.63
888.82	225.62
889.13	225.63
889.43	225.73
889.74	225.73
890.05	225.73
890.35	225.69
890.66	225.71
890.97	225.71
891.28	225.71
891.58	225.72
891.89	225.72
892.20	225.68
892.50	225.68
892.81	225.70
893.12	225.71
893.42	225.67
893.73	225.72
894.04	225.73
894.34	225.73
894.65	225.74
894.95	225.70
895.26	225.68
895.57	225.70
895.87	225.64
896.18	225.67
896.48	225.66
896.79	225.66
897.10	225.66
897.40	225.68
897.71	225.70
898.01	225.69
898.32	225.68
898.63	225.68
898.93	225.63
899.24	225.66
899.54	225.66
899.85	225.66
900.15	225.59
900.46	225.57
900.76	225.57
901.07	225.52
901.38	225.53
901.68	225.55
901.99	225.50
902.29	225.46
902.60	225.45
902.90	225.40
903.21	225.39
903.51	225.35
903.82	225.37
904.12	225.38
904.43	225.34
904.73	225.33
905.03	225.34
905.34	225.44
905.64	225.40
905.95	225.38
906.25	225.35
906.56	225.35
906.86	225.35
907.17	225.34
907.47	225.38
907.77	225.39
908.08	225.34
908.38	225.32
908.69	225.31
908.99	225.28
909.30	225.30
909.60	225.32
909.90	225.36
910.21	225.33
910.51	225.28
910.81	225.28
911.12	225.26
911.42	225.23
911.73	225.13
912.03	225.13
912.33	225.15
912.64	225.17
912.94	225.17
913.24	225.16
913.55	225.13
913.85	225.10
914.15	225.09
914.46	225.13
914.76	225.14
915.06	225.17
915.37	225.15
915.67	225.16
915.97	225.17
916.27	225.16
916.58	225.13
916.88	225.14
917.18	225.15
917.49	225.24
917.79	225.28
918.09	225.33
918.39	225.38
918.70	225.35
919.00	225.35
919.30	225.42
919.60	225.43
919.91	225.44
920.21	225.46
920.51	225.46
920.81	225.42
921.12	225.41
921.42	225.44
921.72	225.49
922.02	225.49
922.32	225.52
922.63	225.51
922.93	225.60
923.23	225.63
923.53	225.62
923.83	225.58
924.13	225.56
924.44	225.55
924.74	225.56
925.04	225.64
925.34	225.63
925.64	225.58
925.94	225.58
926.24	225.66
926.55	225.66
926.85	225.66
927.15	225.73
927.45	225.75
927.75	225.75
928.05	225.73
928.35	225.70
928.65	225.70
928.95	225.71
929.26	225.67
929.56	225.69
929.86	225.71
930.16	225.70
930.46	225.67
930.76	225.67
931.06	225.63
931.36	225.59
931.66	225.62
931.96	225.64
932.26	225.61
932.56	225.56
932.86	225.59
933.16	225.58
933.46	225.57
933.76	225.56
934.06	225.60
934.36	225.61
934.66	225.63
934.96	225.61
935.26	225.61
935.56	225.59
935.86	225.58
936.16	225.55
936.46	225.57
936.76	225.59
937.06	225.59
937.36	225.62
937.66	225.62
937.96	225.62
938.26	225.58
938.56	225.60
938.86	225.60
939.16	225.59
939.46	225.61
939.76	225.56
940.06	225.57
940.35	225.52
940.65	225.48
940.95	225.47
941.25	225.44
941.55	225.42
941.85	225.44
942.15	225.46
942.45	225.49
942.75	225.44
943.04	225.46
943.34	225.49
943.64	225.42
943.94	225.41
944.24	225.41
944.54	225.43
944.84	225.46
945.13	225.44
945.43	225.44
945.73	225.42
946.03	225.44
946.33	225.45
946.62	225.43
946.92	225.46
947.22	225.49
947.52	225.49
947.82	225.52
948.11	225.51
948.41	225.49
948.71	225.47
949.01	225.50
949.31	225.50
949.60	225.49
949.90	225.54
950.20	225.52
950.50	225.55
950.79	225.54
951.09	225.55
951.39	225.56
951.69	225.56
951.98	225.55
952.28	225.57
952.58	225.55
952.87	225.57
953.17	225.59
953.47	225.59
953.76	225.61
954.06	225.60
954.36	225.59
954.66	225.60
954.95	225.63
955.25	225.65
955.55	225.61
955.84	225.63
956.14	225.63
956.44	225.65
956.73	225.64
957.03	225.67
957.32	225.64
957.62	225.66
957.92	225.69
958.21	225.71
958.51	225.83
958.81	225.86
959.10	225.89
959.40	225.90
959.69	225.91
959.99	225.91
960.29	225.93
960.58	225.93
960.88	225.95
961.17	225.92
961.47	225.91
961.76	225.94
962.06	225.97
962.36	225.98
962.65	225.99
962.95	225.98
963.24	225.99
963.54	226.00
963.83	226.01
964.13	225.99
964.42	225.97
964.72	225.92
965.01	225.91
965.31	225.90
965.60	225.85
965.90	225.90
966.19	225.88
966.49	225.89
966.78	225.90
967.08	225.90
967.37	225.92
967.67	225.89
967.96	225.91
968.26	225.89
968.55	225.88
968.85	225.83
969.14	225.85
969.43	225.81
969.73	225.83
970.02	225.81
970.32	225.80
970.61	225.78
970.91	225.72
971.20	225.71
971.49	225.68
971.79	225.72
972.08	225.64
972.38	225.64
972.67	225.62
972.96	225.63
973.26	225.60
973.55	225.62
973.85	225.61
974.14	225.60
974.43	225.59
974.73	225.56
975.02	225.59
975.31	225.56
975.61	225.55
975.90	225.53
976.19	225.49
976.49	225.50
976.78	225.50
977.07	225.53
977.37	225.53
977.66	225.53
977.95	225.48
978.24	225.50
978.54	225.51
978.83	225.52
979.12	225.47
979.42	225.48
979.71	225.46
980.00	225.46
980.29	225.45
980.59	225.43
980.88	225.48
981.17	225.44
981.46	225.46
981.76	225.47
982.05	225.50
982.34	225.54
982.63	225.51
982.93	225.52
983.22	225.53
983.51	225.52
983.80	225.55
984.09	225.56
984.39	225.52
984.68	225.52
984.97	225.53
985.26	225.54
985.55	225.54
985.85	225.53
986.14	225.55
986.43	225.56
986.72	225.56
987.01	225.55
987.30	225.56
987.59	225.55
987.89	225.54
988.18	225.51
988.47	225.49
988.76	225.49
989.05	225.49
989.34	225.46
989.63	225.49
989.92	225.47
990.22	225.48
990.51	225.49
990.80	225.50
991.09	225.51
991.38	225.56
991.67	225.55
991.96	225.53
992.25	225.57
992.54	225.53
992.83	225.53
993.12	225.52
993.41	225.58
993.70	225.62
993.99	225.66
994.28	225.71
994.58	225.71
994.87	225.74
995.16	225.76
995.45	225.75
995.74	225.72
996.03	225.74
996.32	225.78
996.61	225.84
996.90	225.82
997.19	225.82
997.48	225.81
997.77	225.83
998.06	225.86
998.34	225.81
998.63	225.85
998.92	225.87
999.21	225.90
999.50	225.88
999.79	225.86
1000.08	225.86
1000.37	225.84
1000.66	225.84
1000.95	225.87
1001.24	225.89
1001.53	225.94
1001.82	225.94
1002.11	225.93
1002.40	225.92
1002.68	225.92
1002.97	226.00
1003.26	225.98
1003.55	225.96
1003.84	225.96
1004.13	225.98
1004.42	226.02
1004.71	226.01
1004.99	226.01
1005.28	226.04
1005.57	226.02
1005.86	226.01
1006.15	226.01
1006.44	225.99
1006.72	226.04
1007.01	226.02
1007.30	226.02
1007.59	225.98
1007.88	225.99
1008.17	225.99
1008.45	225.95
1008.74	225.94
1009.03	225.90
1009.32	225.91
1009.60	225.94
1009.89	225.91
1010.18	225.88
1010.47	225.85
1010.76	225.83
1011.04	225.80
1011.33	225.80
1011.62	225.80
1011.91	225.80
1012.19	225.81
1012.48	225.82
1012.77	225.81
1013.05	225.86
1013.34	225.82
1013.63	225.83
1013.92	225.83
1014.20	225.83
1014.49	225.87
1014.78	225.85
1015.06	225.80
1015.35	225.78
1015.64	225.80
1015.92	225.84
1016.21	225.84
1016.50	225.84
1016.78	225.88
1017.07	225.86
1017.36	225.81
1017.64	225.80
1017.93	225.78
1018.22	225.78
1018.50	225.80
1018.79	225.76
1019.08	225.69
1019.36	225.70
1019.65	225.68
1019.93	225.70
1020.22	225.71
1020.51	225.75
1020.79	225.72
1021.08	226.14
1021.36	226.00
1021.65	225.47
1021.94	225.40
1022.22	225.68
1022.51	225.45
1022.79	226.13
1023.08	225.88
1023.36	226.83
1023.65	225.03
>>>>>End Processed Spectral Data<<<<<
