SpectraSuite Data File
++++++++++++++++++++++++++++++++++++
Date: Fri Feb 01 14:54:25 EST 2013
User: group
Dark Spectrum Present: No
Reference Spectrum Present: No
Number of Sampled Component Spectra: 1
Spectrometers: USB2E7196
Integration Time (usec): 35000 (USB2E7196)
Spectra Averaged: 100 (USB2E7196)
Boxcar Smoothing: 10 (USB2E7196)
Correct for Electrical Dark: No (USB2E7196)
Strobe/Lamp Enabled: No (USB2E7196)
Correct for Detector Non-linearity: No (USB2E7196)
Correct for Stray Light: No (USB2E7196)
Number of Pixels in Processed Spectrum: 2048
>>>>>Begin Processed Spectral Data<<<<<
339.09	0.00
339.48	216.08
339.86	216.67
340.24	218.42
340.63	219.88
341.01	223.14
341.39	222.52
341.78	223.94
342.16	224.48
342.54	225.47
342.93	213.83
343.31	224.64
343.69	225.15
344.07	225.61
344.46	226.03
344.84	226.38
345.22	226.56
345.60	226.80
345.99	227.00
346.37	227.16
346.75	227.25
347.13	227.31
347.52	227.37
347.90	227.44
348.28	227.48
348.66	227.52
349.05	227.52
349.43	227.55
349.81	227.60
350.19	227.64
350.57	227.67
350.96	227.77
351.34	227.85
351.72	227.93
352.10	228.02
352.48	228.10
352.87	228.17
353.25	228.24
353.63	228.32
354.01	228.37
354.39	228.42
354.77	228.49
355.15	228.56
355.54	228.62
355.92	228.66
356.30	228.71
356.68	228.84
357.06	228.92
357.44	228.96
357.82	229.03
358.20	229.08
358.58	229.16
358.97	229.21
359.35	229.24
359.73	229.35
360.11	229.42
360.49	229.47
360.87	229.53
361.25	229.60
361.63	229.64
362.01	229.68
362.39	229.71
362.77	229.77
363.15	229.79
363.53	229.77
363.91	229.81
364.29	229.84
364.67	229.77
365.05	229.77
365.43	229.80
365.81	229.82
366.19	229.86
366.57	229.90
366.95	229.90
367.33	229.92
367.71	229.86
368.09	229.86
368.47	229.82
368.85	229.78
369.23	229.75
369.61	229.69
369.99	229.68
370.37	229.66
370.75	229.64
371.13	229.61
371.51	229.58
371.89	229.53
372.27	229.49
372.65	229.44
373.03	229.38
373.41	229.29
373.78	229.18
374.16	229.09
374.54	229.01
374.92	228.93
375.30	228.83
375.68	228.73
376.06	228.65
376.44	228.59
376.82	228.50
377.19	228.42
377.57	228.36
377.95	228.23
378.33	228.13
378.71	228.02
379.09	227.95
379.47	227.90
379.84	227.82
380.22	227.70
380.60	227.59
380.98	227.53
381.36	227.44
381.73	227.40
382.11	227.34
382.49	227.24
382.87	227.15
383.25	227.08
383.62	227.15
384.00	227.08
384.38	227.02
384.76	227.00
385.13	226.99
385.51	226.94
385.89	226.88
386.27	226.86
386.64	226.80
387.02	226.74
387.40	226.68
387.78	226.64
388.15	226.62
388.53	226.58
388.91	226.56
389.29	226.52
389.66	226.48
390.04	226.47
390.42	226.46
390.79	226.44
391.17	226.43
391.55	226.30
391.92	226.28
392.30	226.31
392.68	226.25
393.05	226.24
393.43	226.25
393.81	226.28
394.18	226.25
394.56	226.32
394.94	226.37
395.31	226.41
395.69	226.48
396.06	226.54
396.44	226.61
396.82	226.63
397.19	226.77
397.57	226.83
397.95	226.89
398.32	226.96
398.70	227.05
399.07	227.12
399.45	227.18
399.82	227.29
400.20	227.33
400.58	227.47
400.95	227.52
401.33	227.63
401.70	227.78
402.08	227.88
402.45	227.97
402.83	228.08
403.20	228.17
403.58	228.25
403.95	228.38
404.33	228.52
404.71	228.64
405.08	228.84
405.46	229.00
405.83	229.14
406.21	229.30
406.58	229.50
406.96	229.70
407.33	229.90
407.70	230.11
408.08	230.37
408.45	230.59
408.83	230.84
409.20	231.04
409.58	231.24
409.95	231.51
410.33	231.78
410.70	232.02
411.08	232.32
411.45	232.66
411.82	232.99
412.20	233.36
412.57	233.77
412.95	234.05
413.32	234.46
413.69	234.89
414.07	235.29
414.44	235.72
414.82	236.18
415.19	236.71
415.56	237.25
415.94	237.82
416.31	238.41
416.68	239.04
417.06	239.78
417.43	240.46
417.81	241.24
418.18	242.02
418.55	242.85
418.93	243.71
419.30	244.57
419.67	245.47
420.04	246.40
420.42	247.39
420.79	248.56
421.16	249.71
421.54	250.91
421.91	252.14
422.28	253.40
422.66	254.73
423.03	256.05
423.40	257.35
423.77	258.73
424.15	260.19
424.52	261.69
424.89	263.28
425.26	264.79
425.64	266.24
426.01	267.86
426.38	269.54
426.75	271.21
427.13	272.97
427.50	274.78
427.87	276.65
428.24	278.53
428.61	280.29
428.99	282.21
429.36	284.29
429.73	286.37
430.10	288.35
430.47	290.42
430.85	292.54
431.22	294.82
431.59	297.21
431.96	299.48
432.33	301.98
432.70	304.37
433.08	307.20
433.45	309.90
433.82	312.47
434.19	315.37
434.56	318.20
434.93	320.84
435.30	323.45
435.68	326.35
436.05	329.19
436.42	331.94
436.79	334.46
437.16	337.20
437.53	340.02
437.90	342.89
438.27	345.62
438.64	348.48
439.01	351.08
439.38	353.29
439.75	355.49
440.13	357.95
440.50	360.28
440.87	362.13
441.24	364.01
441.61	366.18
441.98	367.67
442.35	369.48
442.72	371.37
443.09	373.24
443.46	374.23
443.83	374.82
444.20	375.36
444.57	376.20
444.94	376.51
445.31	376.88
445.68	377.23
446.05	377.32
446.42	376.95
446.79	376.49
447.16	376.09
447.53	375.74
447.90	374.56
448.27	373.41
448.64	371.85
449.01	370.72
449.37	368.77
449.74	366.84
450.11	364.59
450.48	362.11
450.85	359.54
451.22	357.40
451.59	355.41
451.96	353.50
452.33	350.88
452.70	348.48
453.07	345.63
453.43	342.72
453.80	339.95
454.17	337.25
454.54	334.72
454.91	332.01
455.28	329.35
455.65	326.89
456.02	324.39
456.38	322.24
456.75	319.58
457.12	317.34
457.49	315.14
457.86	312.95
458.23	311.08
458.59	309.04
458.96	306.92
459.33	305.03
459.70	303.14
460.07	301.64
460.43	299.92
460.80	298.31
461.17	296.88
461.54	295.37
461.91	293.93
462.27	292.49
462.64	291.21
463.01	289.85
463.38	288.55
463.74	287.19
464.11	286.02
464.48	285.00
464.85	283.87
465.21	283.00
465.58	282.07
465.95	280.94
466.32	280.04
466.68	279.15
467.05	278.26
467.42	277.36
467.78	276.43
468.15	275.50
468.52	274.82
468.88	273.93
469.25	273.15
469.62	272.53
469.98	271.82
470.35	271.18
470.72	270.53
471.08	269.88
471.45	269.32
471.82	268.75
472.18	268.09
472.55	267.61
472.92	267.04
473.28	266.58
473.65	266.13
474.02	265.69
474.38	265.30
474.75	264.97
475.11	264.60
475.48	264.30
475.85	264.10
476.21	263.84
476.58	263.66
476.94	263.46
477.31	263.24
477.67	263.07
478.04	262.95
478.41	262.90
478.77	262.88
479.14	262.81
479.50	262.83
479.87	262.91
480.23	262.98
480.60	263.07
480.96	263.16
481.33	263.35
481.69	263.48
482.06	263.67
482.42	263.86
482.79	264.13
483.15	264.46
483.52	264.83
483.88	265.17
484.25	265.56
484.61	265.99
484.98	266.51
485.34	267.09
485.71	267.66
486.07	268.25
486.44	268.82
486.80	269.53
487.17	270.24
487.53	271.08
487.90	271.94
488.26	272.85
488.62	273.84
488.99	274.81
489.35	275.86
489.72	276.98
490.08	278.15
490.44	279.35
490.81	280.69
491.17	282.00
491.54	283.48
491.90	285.02
492.26	286.66
492.63	288.36
492.99	290.11
493.36	291.99
493.72	294.02
494.08	296.14
494.45	298.39
494.81	300.72
495.17	303.06
495.54	305.61
495.90	308.27
496.26	311.05
496.63	313.99
496.99	317.09
497.35	320.29
497.72	323.68
498.08	327.18
498.44	330.81
498.80	334.74
499.17	338.75
499.53	342.87
499.89	347.22
500.26	351.67
500.62	356.30
500.98	361.20
501.34	366.29
501.71	371.57
502.07	376.99
502.43	382.64
502.79	388.46
503.16	394.49
503.52	400.80
503.88	407.14
504.24	413.76
504.60	420.62
504.97	427.70
505.33	434.99
505.69	442.64
506.05	450.36
506.41	458.19
506.78	466.33
507.14	474.80
507.50	483.44
507.86	492.45
508.22	501.62
508.59	510.78
508.95	520.36
509.31	530.18
509.67	540.26
510.03	550.50
510.39	561.00
510.75	571.80
511.12	582.61
511.48	593.97
511.84	605.36
512.20	616.85
512.56	628.84
512.92	641.01
513.28	653.40
513.64	665.93
514.00	678.65
514.37	691.56
514.73	704.56
515.09	717.64
515.45	730.83
515.81	744.42
516.17	758.39
516.53	772.40
516.89	786.57
517.25	800.74
517.61	815.11
517.97	829.62
518.33	844.12
518.69	858.93
519.05	873.83
519.41	888.95
519.77	904.55
520.13	920.06
520.49	935.43
520.85	950.76
521.21	966.51
521.57	982.80
521.93	998.67
522.29	1015.06
522.65	1031.38
523.01	1047.74
523.37	1063.88
523.73	1080.22
524.09	1096.46
524.45	1112.83
524.81	1129.49
525.17	1146.36
525.53	1163.34
525.89	1180.25
526.25	1197.09
526.61	1213.59
526.97	1230.45
527.33	1246.95
527.68	1263.54
528.04	1280.19
528.40	1296.91
528.76	1314.05
529.12	1330.65
529.48	1347.58
529.84	1363.71
530.20	1380.37
530.56	1397.39
530.91	1414.85
531.27	1431.70
531.63	1448.21
531.99	1464.82
532.35	1480.93
532.71	1496.95
533.07	1513.44
533.42	1529.35
533.78	1545.58
534.14	1561.99
534.50	1577.35
534.86	1593.23
535.21	1608.48
535.57	1624.43
535.93	1639.96
536.29	1654.82
536.65	1670.00
537.00	1684.85
537.36	1700.37
537.72	1715.10
538.08	1729.63
538.44	1743.46
538.79	1757.47
539.15	1771.28
539.51	1785.19
539.87	1799.72
540.22	1813.55
540.58	1827.40
540.94	1840.92
541.29	1853.88
541.65	1866.62
542.01	1880.04
542.37	1892.54
542.72	1905.12
543.08	1917.02
543.44	1929.56
543.79	1940.76
544.15	1951.76
544.51	1963.44
544.87	1974.38
545.22	1985.25
545.58	1995.67
545.94	2005.47
546.29	2015.34
546.65	2025.16
547.01	2034.37
547.36	2043.02
547.72	2051.46
548.07	2059.09
548.43	2067.23
548.79	2075.22
549.14	2082.81
549.50	2090.22
549.86	2097.98
550.21	2105.26
550.57	2112.45
550.92	2119.00
551.28	2126.15
551.64	2133.17
551.99	2139.58
552.35	2145.74
552.70	2151.81
553.06	2157.60
553.41	2164.02
553.77	2169.89
554.13	2175.89
554.48	2181.97
554.84	2187.25
555.19	2192.61
555.55	2197.76
555.90	2202.10
556.26	2206.94
556.61	2211.65
556.97	2215.80
557.32	2219.77
557.68	2223.95
558.03	2228.15
558.39	2231.81
558.74	2236.41
559.10	2240.25
559.45	2243.82
559.81	2248.07
560.16	2251.74
560.52	2254.81
560.87	2258.09
561.23	2260.60
561.58	2263.43
561.94	2265.84
562.29	2268.24
562.64	2270.72
563.00	2273.35
563.35	2276.80
563.71	2279.75
564.06	2282.75
564.42	2285.43
564.77	2287.75
565.12	2289.68
565.48	2291.18
565.83	2292.93
566.19	2294.03
566.54	2294.89
566.89	2295.97
567.25	2296.28
567.60	2297.48
567.96	2299.05
568.31	2299.71
568.66	2300.70
569.02	2301.27
569.37	2301.40
569.72	2302.09
570.08	2302.03
570.43	2301.69
570.78	2300.82
571.14	2299.06
571.49	2297.50
571.84	2296.94
572.20	2295.53
572.55	2294.33
572.90	2292.75
573.26	2291.13
573.61	2289.27
573.96	2287.24
574.31	2283.93
574.67	2280.67
575.02	2276.95
575.37	2273.44
575.72	2269.40
576.08	2265.96
576.43	2262.35
576.78	2258.45
577.13	2255.02
577.49	2251.90
577.84	2248.25
578.19	2244.44
578.54	2240.67
578.90	2236.25
579.25	2230.57
579.60	2225.56
579.95	2220.37
580.30	2215.19
580.66	2210.00
581.01	2204.80
581.36	2199.69
581.71	2195.48
582.06	2191.01
582.42	2186.32
582.77	2180.91
583.12	2176.25
583.47	2171.26
583.82	2166.03
584.17	2160.74
584.53	2155.04
584.88	2149.13
585.23	2143.24
585.58	2137.62
585.93	2132.02
586.28	2127.22
586.63	2122.00
586.98	2116.77
587.34	2111.99
587.69	2107.03
588.04	2101.60
588.39	2095.90
588.74	2089.39
589.09	2083.03
589.44	2076.04
589.79	2069.73
590.14	2063.88
590.49	2057.22
590.84	2050.77
591.19	2044.58
591.54	2037.87
591.89	2030.33
592.25	2023.55
592.60	2016.13
592.95	2008.44
593.30	2001.01
593.65	1993.31
594.00	1986.14
594.35	1978.87
594.70	1970.73
595.05	1963.26
595.40	1955.91
595.75	1948.32
596.10	1941.97
596.45	1935.09
596.80	1928.85
597.15	1922.34
597.50	1915.16
597.85	1908.50
598.19	1901.74
598.54	1894.78
598.89	1888.27
599.24	1882.46
599.59	1875.57
599.94	1869.49
600.29	1863.13
600.64	1856.47
600.99	1848.79
601.34	1842.01
601.69	1834.97
602.04	1828.03
602.39	1820.72
602.74	1813.80
603.08	1806.95
603.43	1800.15
603.78	1792.88
604.13	1785.64
604.48	1778.18
604.83	1771.42
605.18	1764.39
605.53	1756.26
605.87	1748.20
606.22	1740.82
606.57	1732.92
606.92	1725.67
607.27	1718.43
607.62	1711.48
607.96	1704.26
608.31	1697.77
608.66	1689.99
609.01	1682.47
609.36	1675.00
609.70	1667.04
610.05	1658.90
610.40	1651.20
610.75	1642.99
611.10	1635.47
611.44	1627.22
611.79	1619.33
612.14	1610.66
612.49	1601.75
612.83	1593.60
613.18	1585.63
613.53	1577.59
613.88	1569.10
614.22	1560.90
614.57	1552.35
614.92	1544.45
615.27	1536.92
615.61	1528.67
615.96	1520.84
616.31	1513.28
616.65	1505.91
617.00	1498.34
617.35	1490.81
617.70	1482.50
618.04	1473.86
618.39	1465.55
618.74	1457.93
619.08	1449.61
619.43	1442.17
619.78	1435.28
620.12	1428.06
620.47	1420.45
620.82	1412.38
621.16	1405.04
621.51	1397.38
621.85	1389.91
622.20	1381.33
622.55	1373.11
622.89	1365.31
623.24	1357.75
623.59	1350.36
623.93	1342.92
624.28	1335.87
624.62	1328.41
624.97	1321.36
625.32	1314.85
625.66	1307.97
626.01	1300.83
626.35	1293.44
626.70	1285.68
627.04	1278.00
627.39	1270.45
627.73	1263.21
628.08	1256.32
628.43	1248.98
628.77	1241.68
629.12	1234.11
629.46	1227.05
629.81	1219.63
630.15	1212.56
630.50	1205.26
630.84	1197.16
631.19	1189.22
631.53	1181.81
631.88	1174.32
632.22	1166.78
632.57	1159.56
632.91	1152.06
633.26	1144.69
633.60	1137.48
633.95	1130.48
634.29	1123.48
634.64	1116.79
634.98	1109.40
635.32	1102.49
635.67	1096.05
636.01	1089.55
636.36	1082.88
636.70	1076.49
637.05	1070.01
637.39	1063.57
637.73	1057.05
638.08	1051.37
638.42	1045.51
638.77	1039.08
639.11	1032.53
639.45	1026.23
639.80	1019.61
640.14	1013.18
640.49	1006.74
640.83	1000.54
641.17	994.35
641.52	988.21
641.86	981.93
642.20	976.19
642.55	969.87
642.89	963.31
643.23	956.78
643.58	951.01
643.92	944.74
644.26	938.71
644.61	932.77
644.95	926.81
645.29	920.20
645.64	913.51
645.98	907.22
646.32	901.46
646.66	895.40
647.01	889.62
647.35	884.00
647.69	878.20
648.04	872.68
648.38	866.94
648.72	860.82
649.06	854.66
649.41	848.75
649.75	842.74
650.09	836.90
650.43	831.14
650.78	825.02
651.12	819.18
651.46	813.49
651.80	807.71
652.14	802.41
652.49	797.08
652.83	791.93
653.17	786.23
653.51	780.48
653.85	775.25
654.20	769.60
654.54	763.65
654.88	757.99
655.22	752.17
655.56	746.49
655.90	741.09
656.25	735.84
656.59	730.59
656.93	725.58
657.27	720.41
657.61	715.05
657.95	709.93
658.29	704.85
658.64	699.68
658.98	694.40
659.32	688.96
659.66	683.73
660.00	678.45
660.34	673.62
660.68	668.74
661.02	663.66
661.36	658.97
661.70	654.54
662.05	650.31
662.39	645.97
662.73	641.56
663.07	637.31
663.41	632.89
663.75	628.39
664.09	623.82
664.43	619.56
664.77	615.46
665.11	611.33
665.45	607.30
665.79	603.22
666.13	599.15
666.47	595.05
666.81	590.93
667.15	586.90
667.49	583.02
667.83	579.30
668.17	575.42
668.51	571.45
668.85	567.49
669.19	563.60
669.53	559.81
669.87	556.00
670.21	552.31
670.55	548.79
670.89	545.41
671.23	542.03
671.57	538.59
671.91	535.12
672.25	531.66
672.58	528.16
672.92	524.87
673.26	521.77
673.60	518.68
673.94	515.57
674.28	512.74
674.62	509.80
674.96	506.72
675.30	503.82
675.64	500.92
675.97	498.17
676.31	495.33
676.65	492.45
676.99	489.79
677.33	486.98
677.67	484.18
678.01	481.15
678.34	478.18
678.68	475.29
679.02	472.46
679.36	469.74
679.70	467.03
680.04	464.23
680.37	461.38
680.71	458.63
681.05	456.09
681.39	453.40
681.73	450.81
682.06	448.32
682.40	445.81
682.74	443.30
683.08	440.77
683.42	438.21
683.75	435.71
684.09	433.19
684.43	430.73
684.77	428.32
685.10	426.09
685.44	423.87
685.78	421.61
686.12	419.44
686.45	417.18
686.79	414.94
687.13	412.79
687.46	410.68
687.80	408.54
688.14	406.36
688.48	404.29
688.81	402.08
689.15	399.98
689.49	397.85
689.82	395.78
690.16	393.77
690.50	391.83
690.83	389.94
691.17	387.96
691.51	386.04
691.84	384.20
692.18	382.24
692.52	380.29
692.85	378.37
693.19	376.47
693.52	374.63
693.86	372.81
694.20	371.03
694.53	369.22
694.87	367.42
695.21	365.65
695.54	363.85
695.88	362.14
696.21	360.37
696.55	358.69
696.88	357.07
697.22	355.40
697.56	353.79
697.89	352.12
698.23	350.57
698.56	348.98
698.90	347.36
699.23	345.74
699.57	344.15
699.90	342.63
700.24	341.12
700.58	339.60
700.91	338.14
701.25	336.70
701.58	335.36
701.92	334.01
702.25	332.61
702.59	331.23
702.92	329.89
703.26	328.59
703.59	327.34
703.93	326.14
704.26	324.87
704.60	323.55
704.93	322.29
705.26	321.03
705.60	319.86
705.93	318.77
706.27	317.73
706.60	316.74
706.94	315.67
707.27	314.52
707.61	313.47
707.94	312.45
708.27	311.36
708.61	310.27
708.94	309.25
709.28	308.34
709.61	307.40
709.94	306.48
710.28	305.50
710.61	304.52
710.95	303.47
711.28	302.60
711.61	301.70
711.95	300.79
712.28	299.82
712.61	298.86
712.95	297.92
713.28	297.04
713.61	296.12
713.95	295.25
714.28	294.44
714.61	293.59
714.95	292.76
715.28	291.94
715.61	291.10
715.95	290.24
716.28	289.37
716.61	288.54
716.95	287.73
717.28	287.02
717.61	286.31
717.94	285.57
718.28	284.76
718.61	284.04
718.94	283.35
719.27	282.74
719.61	282.14
719.94	281.51
720.27	280.81
720.60	280.17
720.94	279.57
721.27	279.01
721.60	278.45
721.93	277.88
722.27	277.36
722.60	276.79
722.93	276.21
723.26	275.68
723.59	275.14
723.93	274.61
724.26	274.05
724.59	273.46
724.92	273.00
725.25	272.54
725.59	272.04
725.92	271.52
726.25	271.02
726.58	270.52
726.91	269.99
727.24	269.55
727.57	269.11
727.91	268.63
728.24	268.14
728.57	267.67
728.90	267.23
729.23	266.73
729.56	266.34
729.89	265.93
730.22	265.45
730.55	265.02
730.89	264.59
731.22	264.15
731.55	263.73
731.88	263.29
732.21	262.83
732.54	262.40
732.87	261.99
733.20	261.62
733.53	261.20
733.86	260.87
734.19	260.49
734.52	260.07
734.85	259.75
735.18	259.35
735.51	258.97
735.84	258.58
736.17	258.22
736.50	257.81
736.83	257.57
737.16	257.21
737.49	256.89
737.82	256.56
738.15	256.25
738.48	255.96
738.81	255.61
739.14	255.28
739.47	254.94
739.80	254.63
740.13	254.28
740.46	253.96
740.79	253.59
741.12	253.26
741.45	252.94
741.78	252.53
742.11	252.24
742.44	251.88
742.77	251.59
743.10	251.28
743.43	250.97
743.75	250.55
744.08	250.42
744.41	250.14
744.74	249.80
745.07	249.50
745.40	249.21
745.73	248.96
746.06	248.68
746.39	248.44
746.71	248.17
747.04	247.86
747.37	247.60
747.70	247.37
748.03	247.10
748.36	246.89
748.68	246.69
749.01	246.43
749.34	246.22
749.67	245.98
750.00	245.73
750.33	245.60
750.65	245.40
750.98	245.04
751.31	244.82
751.64	244.66
751.97	244.50
752.29	244.27
752.62	244.02
752.95	243.83
753.28	243.60
753.60	243.37
753.93	243.23
754.26	243.02
754.59	242.81
754.91	242.60
755.24	242.42
755.57	242.18
755.90	242.00
756.22	241.79
756.55	241.60
756.88	241.44
757.20	241.19
757.53	240.99
757.86	240.84
758.19	240.69
758.51	240.48
758.84	240.27
759.17	240.14
759.49	239.97
759.82	239.83
760.15	239.69
760.47	239.61
760.80	239.46
761.13	239.37
761.45	239.22
761.78	239.11
762.11	238.97
762.43	238.90
762.76	238.79
763.08	238.68
763.41	238.55
763.74	238.41
764.06	238.27
764.39	238.13
764.71	238.00
765.04	237.84
765.37	237.75
765.69	237.63
766.02	237.51
766.34	237.40
766.67	237.28
767.00	237.16
767.32	237.09
767.65	237.01
767.97	236.89
768.30	236.76
768.62	236.65
768.95	236.52
769.27	236.41
769.60	236.29
769.92	236.22
770.25	236.10
770.57	235.99
770.90	235.90
771.22	235.79
771.55	235.69
771.87	235.61
772.20	235.53
772.52	235.50
772.85	235.51
773.17	235.40
773.50	235.32
773.82	235.23
774.15	235.07
774.47	234.91
774.80	234.83
775.12	234.74
775.45	234.68
775.77	234.59
776.09	234.50
776.42	234.42
776.74	234.36
777.07	234.29
777.39	234.24
777.72	234.12
778.04	234.08
778.36	234.04
778.69	233.98
779.01	233.89
779.33	233.72
779.66	233.54
779.98	233.48
780.31	233.42
780.63	233.36
780.95	233.31
781.28	233.26
781.60	233.19
781.92	233.11
782.25	233.01
782.57	232.95
782.89	232.87
783.22	232.78
783.54	232.66
783.86	232.62
784.19	232.53
784.51	232.53
784.83	232.41
785.16	232.30
785.48	232.21
785.80	232.15
786.12	232.15
786.45	232.10
786.77	232.03
787.09	231.96
787.42	231.90
787.74	231.85
788.06	231.79
788.38	231.73
788.71	231.69
789.03	231.66
789.35	231.62
789.67	231.58
789.99	231.56
790.32	231.51
790.64	231.45
790.96	231.51
791.28	231.43
791.61	231.41
791.93	231.39
792.25	231.34
792.57	231.38
792.89	231.30
793.21	231.27
793.54	231.22
793.86	231.17
794.18	231.14
794.50	231.08
794.82	231.07
795.14	231.05
795.47	231.03
795.79	230.99
796.11	230.93
796.43	230.87
796.75	230.84
797.07	230.85
797.39	230.82
797.71	230.71
798.04	230.72
798.36	230.70
798.68	230.68
799.00	230.67
799.32	230.61
799.64	230.60
799.96	230.59
800.28	230.60
800.60	230.56
800.92	230.54
801.24	230.54
801.56	230.50
801.89	230.47
802.21	230.46
802.53	230.44
802.85	230.43
803.17	230.49
803.49	230.47
803.81	230.42
804.13	230.41
804.45	230.35
804.77	230.31
805.09	230.31
805.41	230.28
805.73	230.25
806.05	230.17
806.37	230.14
806.69	230.08
807.01	230.05
807.33	230.06
807.65	229.98
807.97	229.98
808.28	229.96
808.60	229.94
808.92	229.91
809.24	229.95
809.56	229.93
809.88	229.89
810.20	229.86
810.52	229.85
810.84	229.78
811.16	229.78
811.48	229.77
811.80	229.80
812.12	229.76
812.43	229.76
812.75	229.75
813.07	229.71
813.39	229.71
813.71	229.70
814.03	229.68
814.35	229.71
814.67	229.66
814.98	229.64
815.30	229.62
815.62	229.58
815.94	229.49
816.26	229.49
816.58	229.44
816.89	229.42
817.21	229.39
817.53	229.39
817.85	229.35
818.17	229.32
818.48	229.21
818.80	229.23
819.12	229.19
819.44	229.18
819.76	229.16
820.07	229.13
820.39	229.10
820.71	229.08
821.03	229.00
821.34	228.98
821.66	228.95
821.98	228.92
822.30	228.88
822.61	228.89
822.93	228.83
823.25	228.80
823.57	228.78
823.88	228.75
824.20	228.74
824.52	228.74
824.83	228.70
825.15	228.68
825.47	228.64
825.79	228.63
826.10	228.54
826.42	228.52
826.74	228.50
827.05	228.45
827.37	228.42
827.69	228.40
828.00	228.39
828.32	228.38
828.64	228.34
828.95	228.36
829.27	228.30
829.58	228.27
829.90	228.27
830.22	228.23
830.53	228.19
830.85	228.17
831.17	228.15
831.48	228.12
831.80	228.13
832.11	228.14
832.43	228.08
832.75	228.09
833.06	228.11
833.38	228.08
833.69	228.08
834.01	228.06
834.32	228.06
834.64	228.03
834.96	228.04
835.27	228.03
835.59	228.00
835.90	228.00
836.22	227.99
836.53	227.96
836.85	227.97
837.16	228.08
837.48	228.05
837.79	228.07
838.11	228.08
838.42	228.05
838.74	228.05
839.05	228.07
839.37	228.11
839.68	228.09
840.00	228.09
840.31	228.12
840.63	228.14
840.94	228.13
841.26	228.11
841.57	228.10
841.88	228.12
842.20	228.15
842.51	228.14
842.83	228.16
843.14	228.28
843.46	228.32
843.77	228.27
844.08	228.31
844.40	228.29
844.71	228.30
845.03	228.31
845.34	228.28
845.65	228.28
845.97	228.27
846.28	228.27
846.60	228.29
846.91	228.27
847.22	228.25
847.54	228.28
847.85	228.30
848.16	228.30
848.48	228.28
848.79	228.29
849.10	228.29
849.42	228.29
849.73	228.19
850.04	228.16
850.36	228.13
850.67	228.12
850.98	228.10
851.30	228.10
851.61	228.11
851.92	228.10
852.23	228.12
852.55	228.14
852.86	228.13
853.17	228.14
853.49	228.16
853.80	228.18
854.11	228.18
854.42	228.21
854.74	228.21
855.05	228.22
855.36	228.19
855.67	228.18
855.99	228.20
856.30	228.29
856.61	228.25
856.92	228.24
857.23	228.23
857.55	228.22
857.86	228.20
858.17	228.22
858.48	228.21
858.79	228.19
859.11	228.18
859.42	228.17
859.73	228.15
860.04	228.13
860.35	228.09
860.66	228.06
860.98	228.02
861.29	227.96
861.60	227.92
861.91	227.94
862.22	227.91
862.53	227.87
862.84	227.76
863.16	227.78
863.47	227.77
863.78	227.77
864.09	227.77
864.40	227.76
864.71	227.73
865.02	227.71
865.33	227.70
865.64	227.67
865.95	227.65
866.27	227.66
866.58	227.63
866.89	227.64
867.20	227.62
867.51	227.60
867.82	227.63
868.13	227.68
868.44	227.66
868.75	227.67
869.06	227.63
869.37	227.64
869.68	227.61
869.99	227.63
870.30	227.63
870.61	227.62
870.92	227.58
871.23	227.60
871.54	227.65
871.85	227.66
872.16	227.66
872.47	227.64
872.78	227.64
873.09	227.65
873.40	227.64
873.71	227.67
874.02	227.65
874.33	227.67
874.64	227.65
874.95	227.66
875.26	227.68
875.56	227.72
875.87	227.75
876.18	227.76
876.49	227.84
876.80	227.82
877.11	227.81
877.42	227.88
877.73	227.87
878.04	227.86
878.35	227.88
878.66	227.89
878.96	227.93
879.27	227.90
879.58	227.91
879.89	227.89
880.20	227.90
880.51	227.93
880.82	227.92
881.12	227.93
881.43	227.91
881.74	227.89
882.05	227.91
882.36	227.88
882.67	227.86
882.97	227.76
883.28	227.76
883.59	227.76
883.90	227.75
884.21	227.77
884.51	227.76
884.82	227.72
885.13	227.72
885.44	227.72
885.74	227.76
886.05	227.73
886.36	227.76
886.67	227.76
886.98	227.78
887.28	227.78
887.59	227.78
887.90	227.77
888.20	227.74
888.51	227.75
888.82	227.74
889.13	227.75
889.43	227.84
889.74	227.82
890.05	227.83
890.35	227.82
890.66	227.78
890.97	227.77
891.28	227.78
891.58	227.79
891.89	227.77
892.20	227.73
892.50	227.73
892.81	227.71
893.12	227.68
893.42	227.66
893.73	227.65
894.04	227.64
894.34	227.66
894.65	227.69
894.95	227.66
895.26	227.63
895.57	227.69
895.87	227.58
896.18	227.61
896.48	227.61
896.79	227.57
897.10	227.60
897.40	227.62
897.71	227.57
898.01	227.55
898.32	227.53
898.63	227.51
898.93	227.52
899.24	227.54
899.54	227.51
899.85	227.50
900.15	227.49
900.46	227.50
900.76	227.49
901.07	227.45
901.38	227.43
901.68	227.48
901.99	227.41
902.29	227.41
902.60	227.39
902.90	227.38
903.21	227.39
903.51	227.36
903.82	227.35
904.12	227.40
904.43	227.39
904.73	227.43
905.03	227.45
905.34	227.53
905.64	227.51
905.95	227.51
906.25	227.51
906.56	227.53
906.86	227.53
907.17	227.55
907.47	227.59
907.77	227.61
908.08	227.58
908.38	227.62
908.69	227.63
908.99	227.67
909.30	227.67
909.60	227.66
909.90	227.68
910.21	227.65
910.51	227.61
910.81	227.60
911.12	227.60
911.42	227.63
911.73	227.54
912.03	227.54
912.33	227.53
912.64	227.51
912.94	227.50
913.24	227.49
913.55	227.43
913.85	227.42
914.15	227.41
914.46	227.43
914.76	227.42
915.06	227.42
915.37	227.39
915.67	227.43
915.97	227.43
916.27	227.42
916.58	227.46
916.88	227.45
917.18	227.47
917.49	227.53
917.79	227.49
918.09	227.50
918.39	227.53
918.70	227.55
919.00	227.58
919.30	227.60
919.60	227.58
919.91	227.60
920.21	227.61
920.51	227.59
920.81	227.59
921.12	227.61
921.42	227.62
921.72	227.63
922.02	227.61
922.32	227.63
922.63	227.62
922.93	227.66
923.23	227.66
923.53	227.66
923.83	227.58
924.13	227.59
924.44	227.58
924.74	227.61
925.04	227.64
925.34	227.63
925.64	227.59
925.94	227.61
926.24	227.67
926.55	227.63
926.85	227.66
927.15	227.65
927.45	227.63
927.75	227.63
928.05	227.64
928.35	227.65
928.65	227.69
928.95	227.68
929.26	227.64
929.56	227.68
929.86	227.66
930.16	227.68
930.46	227.71
930.76	227.75
931.06	227.70
931.36	227.67
931.66	227.69
931.96	227.71
932.26	227.73
932.56	227.68
932.86	227.70
933.16	227.68
933.46	227.66
933.76	227.63
934.06	227.65
934.36	227.67
934.66	227.66
934.96	227.61
935.26	227.59
935.56	227.59
935.86	227.54
936.16	227.52
936.46	227.51
936.76	227.46
937.06	227.45
937.36	227.45
937.66	227.47
937.96	227.44
938.26	227.42
938.56	227.39
938.86	227.37
939.16	227.39
939.46	227.41
939.76	227.41
940.06	227.42
940.35	227.36
940.65	227.31
940.95	227.32
941.25	227.30
941.55	227.33
941.85	227.33
942.15	227.37
942.45	227.43
942.75	227.39
943.04	227.38
943.34	227.40
943.64	227.39
943.94	227.35
944.24	227.37
944.54	227.37
944.84	227.37
945.13	227.36
945.43	227.33
945.73	227.31
946.03	227.30
946.33	227.28
946.62	227.27
946.92	227.29
947.22	227.26
947.52	227.25
947.82	227.24
948.11	227.20
948.41	227.19
948.71	227.16
949.01	227.17
949.31	227.20
949.60	227.16
949.90	227.15
950.20	227.16
950.50	227.15
950.79	227.13
951.09	227.12
951.39	227.13
951.69	227.12
951.98	227.14
952.28	227.14
952.58	227.13
952.87	227.16
953.17	227.16
953.47	227.12
953.76	227.14
954.06	227.12
954.36	227.14
954.66	227.09
954.95	227.12
955.25	227.14
955.55	227.13
955.84	227.12
956.14	227.14
956.44	227.17
956.73	227.13
957.03	227.16
957.32	227.18
957.62	227.19
957.92	227.25
958.21	227.24
958.51	227.40
958.81	227.43
959.10	227.43
959.40	227.46
959.69	227.49
959.99	227.54
960.29	227.56
960.58	227.57
960.88	227.62
961.17	227.63
961.47	227.66
961.76	227.66
962.06	227.70
962.36	227.69
962.65	227.69
962.95	227.73
963.24	227.71
963.54	227.74
963.83	227.73
964.13	227.71
964.42	227.72
964.72	227.65
965.01	227.65
965.31	227.62
965.60	227.58
965.90	227.67
966.19	227.63
966.49	227.66
966.78	227.66
967.08	227.66
967.37	227.65
967.67	227.61
967.96	227.64
968.26	227.64
968.55	227.63
968.85	227.60
969.14	227.63
969.43	227.61
969.73	227.57
970.02	227.58
970.32	227.55
970.61	227.52
970.91	227.47
971.20	227.47
971.49	227.48
971.79	227.51
972.08	227.44
972.38	227.44
972.67	227.44
972.96	227.45
973.26	227.44
973.55	227.45
973.85	227.42
974.14	227.39
974.43	227.35
974.73	227.35
975.02	227.39
975.31	227.35
975.61	227.38
975.90	227.37
976.19	227.37
976.49	227.37
976.78	227.39
977.07	227.34
977.37	227.34
977.66	227.32
977.95	227.31
978.24	227.29
978.54	227.31
978.83	227.26
979.12	227.23
979.42	227.23
979.71	227.21
980.00	227.23
980.29	227.24
980.59	227.21
980.88	227.22
981.17	227.18
981.46	227.16
981.76	227.12
982.05	227.11
982.34	227.09
982.63	227.09
982.93	227.06
983.22	227.10
983.51	227.09
983.80	227.09
984.09	227.09
984.39	227.12
984.68	227.10
984.97	227.13
985.26	227.13
985.55	227.12
985.85	227.10
986.14	227.09
986.43	227.09
986.72	227.11
987.01	227.07
987.30	227.06
987.59	227.06
987.89	227.12
988.18	227.10
988.47	227.12
988.76	227.12
989.05	227.11
989.34	227.09
989.63	227.13
989.92	227.14
990.22	227.11
990.51	227.07
990.80	227.10
991.09	227.06
991.38	227.07
991.67	227.09
991.96	227.08
992.25	227.10
992.54	227.10
992.83	227.12
993.12	227.12
993.41	227.17
993.70	227.24
993.99	227.25
994.28	227.30
994.58	227.31
994.87	227.32
995.16	227.34
995.45	227.33
995.74	227.30
996.03	227.30
996.32	227.33
996.61	227.36
996.90	227.35
997.19	227.37
997.48	227.37
997.77	227.36
998.06	227.36
998.34	227.37
998.63	227.35
998.92	227.37
999.21	227.41
999.50	227.40
999.79	227.36
1000.08	227.36
1000.37	227.37
1000.66	227.38
1000.95	227.37
1001.24	227.39
1001.53	227.42
1001.82	227.42
1002.11	227.41
1002.40	227.44
1002.68	227.44
1002.97	227.51
1003.26	227.48
1003.55	227.48
1003.84	227.47
1004.13	227.51
1004.42	227.51
1004.71	227.53
1004.99	227.50
1005.28	227.52
1005.57	227.49
1005.86	227.51
1006.15	227.48
1006.44	227.47
1006.72	227.49
1007.01	227.50
1007.30	227.50
1007.59	227.51
1007.88	227.52
1008.17	227.54
1008.45	227.51
1008.74	227.51
1009.03	227.48
1009.32	227.50
1009.60	227.51
1009.89	227.50
1010.18	227.46
1010.47	227.44
1010.76	227.42
1011.04	227.42
1011.33	227.40
1011.62	227.41
1011.91	227.42
1012.19	227.45
1012.48	227.43
1012.77	227.38
1013.05	227.41
1013.34	227.40
1013.63	227.38
1013.92	227.38
1014.20	227.39
1014.49	227.39
1014.78	227.40
1015.06	227.34
1015.35	227.33
1015.64	227.34
1015.92	227.36
1016.21	227.38
1016.50	227.36
1016.78	227.35
1017.07	227.35
1017.36	227.35
1017.64	227.33
1017.93	227.31
1018.22	227.28
1018.50	227.25
1018.79	227.25
1019.08	227.21
1019.36	227.24
1019.65	227.23
1019.93	227.27
1020.22	227.23
1020.51	227.28
1020.79	227.23
1021.08	227.22
1021.36	226.76
1021.65	226.99
1021.94	227.21
1022.22	227.74
1022.51	227.35
1022.79	227.98
1023.08	227.06
1023.36	228.47
1023.65	226.69
>>>>>End Processed Spectral Data<<<<<
