SpectraSuite Data File
++++++++++++++++++++++++++++++++++++
Date: Fri Feb 01 17:40:47 EST 2013
User: group
Dark Spectrum Present: No
Reference Spectrum Present: No
Number of Sampled Component Spectra: 1
Spectrometers: USB2E7196
Integration Time (usec): 35000 (USB2E7196)
Spectra Averaged: 100 (USB2E7196)
Boxcar Smoothing: 10 (USB2E7196)
Correct for Electrical Dark: No (USB2E7196)
Strobe/Lamp Enabled: No (USB2E7196)
Correct for Detector Non-linearity: No (USB2E7196)
Correct for Stray Light: No (USB2E7196)
Number of Pixels in Processed Spectrum: 2048
>>>>>Begin Processed Spectral Data<<<<<
339.09	0.00
339.48	212.88
339.86	214.09
340.24	215.52
340.63	216.97
341.01	219.54
341.39	219.42
341.78	221.12
342.16	222.10
342.54	222.94
342.93	211.22
343.31	221.91
343.69	222.44
344.07	222.92
344.46	223.35
344.84	223.73
345.22	224.00
345.60	224.28
345.99	224.46
346.37	224.57
346.75	224.65
347.13	224.69
347.52	224.75
347.90	224.80
348.28	224.83
348.66	224.87
349.05	224.89
349.43	224.92
349.81	224.97
350.19	224.99
350.57	225.06
350.96	225.14
351.34	225.23
351.72	225.32
352.10	225.40
352.48	225.48
352.87	225.53
353.25	225.57
353.63	225.62
354.01	225.67
354.39	225.79
354.77	225.91
355.15	226.02
355.54	226.10
355.92	226.16
356.30	226.22
356.68	226.35
357.06	226.42
357.44	226.49
357.82	226.51
358.20	226.60
358.58	226.66
358.97	226.71
359.35	226.78
359.73	226.85
360.11	226.93
360.49	226.97
360.87	227.01
361.25	227.08
361.63	227.14
362.01	227.20
362.39	227.21
362.77	227.24
363.15	227.28
363.53	227.29
363.91	227.32
364.29	227.35
364.67	227.33
365.05	227.35
365.43	227.37
365.81	227.41
366.19	227.42
366.57	227.45
366.95	227.44
367.33	227.43
367.71	227.41
368.09	227.41
368.47	227.38
368.85	227.38
369.23	227.38
369.61	227.31
369.99	227.32
370.37	227.33
370.75	227.34
371.13	227.25
371.51	227.20
371.89	227.20
372.27	227.14
372.65	227.09
373.03	227.01
373.41	226.94
373.78	226.90
374.16	226.81
374.54	226.76
374.92	226.72
375.30	226.65
375.68	226.56
376.06	226.50
376.44	226.44
376.82	226.39
377.19	226.32
377.57	226.27
377.95	226.18
378.33	226.09
378.71	225.96
379.09	225.92
379.47	225.87
379.84	225.74
380.22	225.69
380.60	225.60
380.98	225.55
381.36	225.49
381.73	225.41
382.11	225.36
382.49	225.28
382.87	225.21
383.25	225.17
383.62	225.23
384.00	225.17
384.38	225.12
384.76	225.08
385.13	225.07
385.51	225.03
385.89	224.99
386.27	224.94
386.64	224.91
387.02	224.86
387.40	224.82
387.78	224.79
388.15	224.78
388.53	224.75
388.91	224.71
389.29	224.66
389.66	224.67
390.04	224.64
390.42	224.64
390.79	224.58
391.17	224.55
391.55	224.45
391.92	224.41
392.30	224.42
392.68	224.40
393.05	224.39
393.43	224.36
393.81	224.33
394.18	224.31
394.56	224.33
394.94	224.37
395.31	224.39
395.69	224.45
396.06	224.47
396.44	224.51
396.82	224.54
397.19	224.63
397.57	224.64
397.95	224.72
398.32	224.72
398.70	224.79
399.07	224.84
399.45	224.90
399.82	224.99
400.20	225.04
400.58	225.07
400.95	225.08
401.33	225.17
401.70	225.34
402.08	225.44
402.45	225.53
402.83	225.63
403.20	225.75
403.58	225.83
403.95	225.93
404.33	226.05
404.71	226.18
405.08	226.37
405.46	226.46
405.83	226.58
406.21	226.72
406.58	226.90
406.96	227.09
407.33	227.26
407.70	227.44
408.08	227.71
408.45	227.96
408.83	228.20
409.20	228.44
409.58	228.64
409.95	228.91
410.33	229.18
410.70	229.47
411.08	229.77
411.45	230.11
411.82	230.46
412.20	230.84
412.57	231.29
412.95	231.59
413.32	232.08
413.69	232.54
414.07	233.04
414.44	233.54
414.82	234.05
415.19	234.67
415.56	235.28
415.94	235.87
416.31	236.59
416.68	237.29
417.06	238.08
417.43	238.83
417.81	239.66
418.18	240.50
418.55	241.43
418.93	242.40
419.30	243.39
419.67	244.46
420.04	245.49
420.42	246.56
420.79	247.88
421.16	249.12
421.54	250.46
421.91	251.79
422.28	253.21
422.66	254.69
423.03	256.14
423.40	257.59
423.77	259.19
424.15	260.74
424.52	262.38
424.89	264.19
425.26	265.93
425.64	267.55
426.01	269.34
426.38	271.20
426.75	273.07
427.13	275.01
427.50	277.02
427.87	279.17
428.24	281.31
428.61	283.25
428.99	285.44
429.36	287.79
429.73	290.09
430.10	292.32
430.47	294.59
430.85	296.91
431.22	299.44
431.59	302.07
431.96	304.59
432.33	307.37
432.70	309.98
433.08	313.09
433.45	316.02
433.82	318.90
434.19	322.06
434.56	325.11
434.93	328.04
435.30	330.90
435.68	334.08
436.05	337.19
436.42	340.29
436.79	343.09
437.16	346.04
437.53	349.22
437.90	352.34
438.27	355.40
438.64	358.53
439.01	361.41
439.38	363.85
439.75	366.28
440.13	369.06
440.50	371.70
440.87	373.74
441.24	375.90
441.61	378.35
441.98	380.00
442.35	382.04
442.72	384.16
443.09	386.19
443.46	387.30
443.83	387.97
444.20	388.56
444.57	389.50
444.94	389.85
445.31	390.24
445.68	390.66
446.05	390.79
446.42	390.41
446.79	389.98
447.16	389.59
447.53	389.21
447.90	387.93
448.27	386.66
448.64	384.90
449.01	383.67
449.37	381.53
449.74	379.49
450.11	377.02
450.48	374.24
450.85	371.42
451.22	369.04
451.59	366.81
451.96	364.67
452.33	361.80
452.70	359.21
453.07	356.05
453.43	352.82
453.80	349.73
454.17	346.75
454.54	343.92
454.91	340.83
455.28	337.88
455.65	335.12
456.02	332.32
456.38	329.96
456.75	326.97
457.12	324.42
457.49	321.89
457.86	319.45
458.23	317.42
458.59	315.17
458.96	312.82
459.33	310.75
459.70	308.64
460.07	306.93
460.43	304.97
460.80	303.15
461.17	301.57
461.54	299.85
461.91	298.25
462.27	296.61
462.64	295.27
463.01	293.75
463.38	292.31
463.74	290.84
464.11	289.50
464.48	288.33
464.85	287.14
465.21	286.22
465.58	285.22
465.95	283.99
466.32	282.98
466.68	282.03
467.05	280.99
467.42	280.03
467.78	279.00
468.15	278.05
468.52	277.33
468.88	276.34
469.25	275.49
469.62	274.77
469.98	274.03
470.35	273.30
470.72	272.62
471.08	271.87
471.45	271.27
471.82	270.74
472.18	270.12
472.55	269.58
472.92	268.99
473.28	268.45
473.65	267.93
474.02	267.43
474.38	266.99
474.75	266.64
475.11	266.26
475.48	265.97
475.85	265.72
476.21	265.44
476.58	265.21
476.94	265.11
477.31	264.94
477.67	264.77
478.04	264.65
478.41	264.61
478.77	264.67
479.14	264.59
479.50	264.55
479.87	264.58
480.23	264.68
480.60	264.74
480.96	264.83
481.33	265.01
481.69	265.19
482.06	265.42
482.42	265.60
482.79	265.81
483.15	266.14
483.52	266.52
483.88	266.86
484.25	267.24
484.61	267.61
484.98	268.05
485.34	268.63
485.71	269.18
486.07	269.76
486.44	270.29
486.80	270.97
487.17	271.66
487.53	272.49
487.90	273.30
488.26	274.19
488.62	275.17
488.99	276.15
489.35	277.20
489.72	278.33
490.08	279.54
490.44	280.81
490.81	282.08
491.17	283.39
491.54	284.87
491.90	286.47
492.26	288.14
492.63	289.90
492.99	291.63
493.36	293.59
493.72	295.62
494.08	297.77
494.45	300.06
494.81	302.41
495.17	304.82
495.54	307.42
495.90	310.12
496.26	312.95
496.63	315.92
496.99	319.04
497.35	322.27
497.72	325.68
498.08	329.20
498.44	332.89
498.80	336.80
499.17	340.87
499.53	344.98
499.89	349.34
500.26	353.84
500.62	358.56
500.98	363.46
501.34	368.52
501.71	373.80
502.07	379.21
502.43	384.85
502.79	390.67
503.16	396.75
503.52	402.95
503.88	409.28
504.24	415.89
504.60	422.71
504.97	429.87
505.33	437.12
505.69	444.79
506.05	452.56
506.41	460.41
506.78	468.48
507.14	476.95
507.50	485.63
507.86	494.62
508.22	503.76
508.59	512.96
508.95	522.47
509.31	532.26
509.67	542.36
510.03	552.69
510.39	563.24
510.75	574.02
511.12	584.95
511.48	596.23
511.84	607.67
512.20	619.16
512.56	631.11
512.92	643.23
513.28	655.57
513.64	667.98
514.00	680.66
514.37	693.59
514.73	706.56
515.09	719.47
515.45	732.63
515.81	746.24
516.17	760.13
516.53	774.29
516.89	788.40
517.25	802.51
517.61	816.79
517.97	831.29
518.33	845.58
518.69	860.31
519.05	875.29
519.41	890.45
519.77	905.89
520.13	921.16
520.49	936.57
520.85	951.87
521.21	967.46
521.57	983.61
521.93	999.38
522.29	1015.65
522.65	1032.02
523.01	1048.14
523.37	1064.15
523.73	1080.34
524.09	1096.50
524.45	1112.84
524.81	1129.41
525.17	1146.02
525.53	1162.68
525.89	1179.63
526.25	1196.56
526.61	1212.92
526.97	1229.62
527.33	1246.27
527.68	1262.88
528.04	1279.38
528.40	1295.99
528.76	1313.12
529.12	1329.82
529.48	1346.74
529.84	1362.95
530.20	1379.62
530.56	1396.74
530.91	1414.17
531.27	1431.07
531.63	1447.49
531.99	1464.17
532.35	1480.37
532.71	1496.67
533.07	1513.14
533.42	1529.25
533.78	1545.59
534.14	1561.98
534.50	1577.55
534.86	1593.62
535.21	1609.10
535.57	1625.31
535.93	1641.05
536.29	1656.17
536.65	1671.57
537.00	1686.57
537.36	1702.20
537.72	1717.01
538.08	1731.82
538.44	1745.88
538.79	1760.13
539.15	1774.04
539.51	1788.08
539.87	1802.87
540.22	1816.87
540.58	1831.00
540.94	1844.48
541.29	1857.44
541.65	1870.51
542.01	1884.11
542.37	1896.85
542.72	1909.67
543.08	1921.94
543.44	1934.75
543.79	1946.38
544.15	1957.79
544.51	1969.89
544.87	1981.22
545.22	1992.52
545.58	2003.31
545.94	2013.67
546.29	2024.12
546.65	2034.54
547.01	2044.35
547.36	2053.54
547.72	2062.71
548.07	2071.37
548.43	2080.19
548.79	2088.75
549.14	2097.07
549.50	2104.88
549.86	2112.98
550.21	2120.94
550.57	2128.72
550.92	2136.04
551.28	2143.93
551.64	2151.68
551.99	2158.60
552.35	2165.52
552.70	2172.28
553.06	2178.93
553.41	2185.95
553.77	2192.45
554.13	2199.25
554.48	2206.00
554.84	2212.28
555.19	2218.11
555.55	2223.89
555.90	2228.98
556.26	2234.87
556.61	2240.13
556.97	2245.34
557.32	2250.20
557.68	2255.02
558.03	2259.85
558.39	2264.08
558.74	2269.19
559.10	2273.56
559.45	2278.13
559.81	2282.86
560.16	2287.24
560.52	2291.00
560.87	2294.96
561.23	2298.27
561.58	2301.60
561.94	2305.00
562.29	2307.73
562.64	2311.29
563.00	2314.33
563.35	2318.50
563.71	2322.14
564.06	2325.84
564.42	2329.26
564.77	2332.47
565.12	2335.49
565.48	2338.01
565.83	2340.63
566.19	2342.89
566.54	2344.38
566.89	2346.27
567.25	2347.58
567.60	2349.33
567.96	2351.73
568.31	2353.17
568.66	2354.74
569.02	2356.11
569.37	2356.86
569.72	2358.37
570.08	2358.82
570.43	2359.19
570.78	2359.20
571.14	2358.12
571.49	2357.21
571.84	2357.16
572.20	2356.52
572.55	2355.87
572.90	2354.64
573.26	2353.70
573.61	2351.98
573.96	2350.87
574.31	2348.15
574.67	2345.67
575.02	2342.55
575.37	2339.32
575.72	2336.05
576.08	2333.06
576.43	2329.92
576.78	2326.60
577.13	2323.60
577.49	2320.80
577.84	2317.90
578.19	2314.33
578.54	2311.15
578.90	2307.56
579.25	2302.40
579.60	2297.77
579.95	2292.95
580.30	2288.21
580.66	2283.31
581.01	2278.56
581.36	2273.62
581.71	2269.89
582.06	2265.79
582.42	2261.78
582.77	2256.87
583.12	2252.39
583.47	2248.09
583.82	2243.46
584.17	2238.38
584.53	2233.15
584.88	2227.71
585.23	2222.21
585.58	2216.89
585.93	2211.39
586.28	2206.39
586.63	2201.65
586.98	2196.61
587.34	2191.89
587.69	2187.16
588.04	2182.10
588.39	2176.67
588.74	2170.27
589.09	2163.89
589.44	2157.06
589.79	2150.64
590.14	2144.93
590.49	2138.33
590.84	2131.71
591.19	2125.77
591.54	2119.29
591.89	2112.08
592.25	2105.43
592.60	2098.11
592.95	2090.78
593.30	2083.40
593.65	2075.83
594.00	2068.51
594.35	2061.26
594.70	2053.13
595.05	2045.92
595.40	2038.38
595.75	2030.91
596.10	2024.87
596.45	2018.23
596.80	2011.95
597.15	2005.54
597.50	1998.63
597.85	1992.13
598.19	1985.50
598.54	1978.39
598.89	1971.70
599.24	1965.55
599.59	1958.95
599.94	1952.51
600.29	1945.90
600.64	1939.14
600.99	1931.72
601.34	1924.80
601.69	1917.37
602.04	1910.60
602.39	1903.11
602.74	1896.08
603.08	1889.14
603.43	1882.13
603.78	1874.65
604.13	1867.26
604.48	1859.88
604.83	1852.88
605.18	1845.99
605.53	1837.92
605.87	1829.56
606.22	1822.07
606.57	1813.87
606.92	1805.79
607.27	1798.57
607.62	1791.52
607.96	1784.12
608.31	1777.45
608.66	1769.64
609.01	1762.14
609.36	1754.39
609.70	1746.10
610.05	1737.82
610.40	1729.78
610.75	1721.20
611.10	1713.10
611.44	1704.19
611.79	1695.60
612.14	1686.37
612.49	1676.55
612.83	1667.69
613.18	1659.13
613.53	1650.54
613.88	1641.69
614.22	1633.12
614.57	1623.85
614.92	1615.35
615.27	1607.61
615.61	1598.87
615.96	1590.45
616.31	1582.22
616.65	1574.31
617.00	1566.46
617.35	1558.53
617.70	1549.90
618.04	1540.95
618.39	1532.31
618.74	1524.55
619.08	1515.97
619.43	1508.04
619.78	1500.69
620.12	1493.24
620.47	1485.37
620.82	1476.80
621.16	1468.81
621.51	1460.80
621.85	1452.78
622.20	1443.92
622.55	1434.95
622.89	1426.74
623.24	1418.62
623.59	1410.80
623.93	1402.86
624.28	1395.12
624.62	1387.06
624.97	1379.32
625.32	1372.11
625.66	1364.67
626.01	1357.10
626.35	1349.55
626.70	1341.48
627.04	1333.55
627.39	1325.26
627.73	1317.44
628.08	1310.24
628.43	1302.82
628.77	1295.35
629.12	1287.67
629.46	1280.19
629.81	1272.23
630.15	1264.41
630.50	1256.65
630.84	1248.23
631.19	1239.92
631.53	1231.95
631.88	1223.98
632.22	1216.07
632.57	1208.42
632.91	1200.53
633.26	1192.72
633.60	1184.78
633.95	1177.06
634.29	1169.49
634.64	1162.51
634.98	1154.86
635.32	1147.39
635.67	1140.33
636.01	1133.23
636.36	1126.06
636.70	1119.13
637.05	1112.26
637.39	1105.52
637.73	1098.77
638.08	1092.55
638.42	1086.26
638.77	1079.57
639.11	1072.85
639.45	1066.19
639.80	1059.24
640.14	1052.62
640.49	1045.79
640.83	1039.22
641.17	1032.87
641.52	1026.42
641.86	1019.65
642.20	1013.59
642.55	1006.87
642.89	1000.19
643.23	993.20
643.58	987.15
643.92	980.73
644.26	974.66
644.61	968.26
644.95	962.06
645.29	955.32
645.64	948.37
645.98	941.70
646.32	935.40
646.66	929.17
647.01	923.10
647.35	917.15
647.69	911.00
648.04	905.14
648.38	899.17
648.72	892.97
649.06	886.73
649.41	880.45
649.75	874.39
650.09	868.16
650.43	862.19
650.78	855.81
651.12	849.53
651.46	843.41
651.80	837.60
652.14	831.83
652.49	826.19
652.83	820.72
653.17	815.02
653.51	809.20
653.85	803.41
654.20	797.65
654.54	791.40
654.88	785.44
655.22	779.34
655.56	773.34
655.90	767.61
656.25	762.08
656.59	756.54
656.93	751.16
657.27	745.76
657.61	740.13
657.95	734.79
658.29	729.58
658.64	724.07
658.98	718.52
659.32	712.81
659.66	707.40
660.00	701.98
660.34	696.73
660.68	691.60
661.02	686.43
661.36	681.44
661.70	676.77
662.05	672.25
662.39	667.77
662.73	663.10
663.07	658.54
663.41	653.90
663.75	649.35
664.09	644.61
664.43	640.03
664.77	635.82
665.11	631.45
665.45	627.10
665.79	622.97
666.13	618.73
666.47	614.52
666.81	610.21
667.15	605.86
667.49	601.81
667.83	597.73
668.17	593.62
668.51	589.41
668.85	585.14
669.19	581.09
669.53	577.14
669.87	573.21
670.21	569.33
670.55	565.51
670.89	561.85
671.23	558.28
671.57	554.61
671.91	550.90
672.25	547.13
672.58	543.43
672.92	539.76
673.26	536.33
673.60	533.07
673.94	529.81
674.28	526.79
674.62	523.65
674.96	520.48
675.30	517.52
675.64	514.52
675.97	511.66
676.31	508.64
676.65	505.59
676.99	502.72
677.33	499.69
677.67	496.78
678.01	493.62
678.34	490.55
678.68	487.55
679.02	484.64
679.36	481.81
679.70	479.03
680.04	476.17
680.37	473.27
680.71	470.38
681.05	467.58
681.39	464.73
681.73	461.90
682.06	459.32
682.40	456.70
682.74	454.04
683.08	451.37
683.42	448.69
683.75	446.03
684.09	443.33
684.43	440.77
684.77	438.21
685.10	435.79
685.44	433.36
685.78	430.99
686.12	428.61
686.45	426.19
686.79	423.73
687.13	421.43
687.46	419.10
687.80	416.80
688.14	414.50
688.48	412.33
688.81	410.14
689.15	407.84
689.49	405.53
689.82	403.35
690.16	401.09
690.50	399.04
690.83	397.02
691.17	394.91
691.51	392.97
691.84	391.01
692.18	389.01
692.52	386.95
692.85	384.90
693.19	382.96
693.52	381.01
693.86	379.14
694.20	377.27
694.53	375.46
694.87	373.52
695.21	371.63
695.54	369.71
695.88	367.83
696.21	366.02
696.55	364.28
696.88	362.52
697.22	360.79
697.56	359.06
697.89	357.35
698.23	355.73
698.56	354.00
698.90	352.36
699.23	350.66
699.57	349.05
699.90	347.45
700.24	345.81
700.58	344.24
700.91	342.71
701.25	341.20
701.58	339.73
701.92	338.34
702.25	336.90
702.59	335.48
702.92	334.11
703.26	332.73
703.59	331.40
703.93	330.13
704.26	328.90
704.60	327.55
704.93	326.21
705.26	324.89
705.60	323.62
705.93	322.37
706.27	321.28
706.60	320.21
706.94	319.04
707.27	317.84
707.61	316.69
707.94	315.54
708.27	314.41
708.61	313.27
708.94	312.18
709.28	311.12
709.61	310.11
709.94	309.12
710.28	308.08
710.61	307.02
710.95	305.87
711.28	304.85
711.61	303.87
711.95	302.90
712.28	301.93
712.61	300.95
712.95	300.00
713.28	299.04
713.61	298.04
713.95	297.16
714.28	296.29
714.61	295.39
714.95	294.49
715.28	293.56
715.61	292.66
715.95	291.74
716.28	290.87
716.61	289.94
716.95	289.05
717.28	288.22
717.61	287.38
717.94	286.63
718.28	285.77
718.61	285.00
718.94	284.24
719.27	283.53
719.61	282.80
719.94	282.09
720.27	281.34
720.60	280.65
720.94	279.98
721.27	279.33
721.60	278.72
721.93	278.08
722.27	277.52
722.60	276.92
722.93	276.32
723.26	275.75
723.59	275.20
723.93	274.65
724.26	274.08
724.59	273.47
724.92	272.91
725.25	272.42
725.59	271.85
725.92	271.38
726.25	270.84
726.58	270.32
726.91	269.81
727.24	269.31
727.57	268.79
727.91	268.27
728.24	267.76
728.57	267.23
728.90	266.75
729.23	266.22
729.56	265.76
729.89	265.28
730.22	264.77
730.55	264.26
730.89	263.78
731.22	263.36
731.55	262.97
731.88	262.50
732.21	262.01
732.54	261.59
732.87	261.09
733.20	260.64
733.53	260.23
733.86	259.83
734.19	259.39
734.52	259.00
734.85	258.68
735.18	258.26
735.51	257.91
735.84	257.52
736.17	257.14
736.50	256.73
736.83	256.48
737.16	256.13
737.49	255.80
737.82	255.42
738.15	255.03
738.48	254.65
738.81	254.34
739.14	254.03
739.47	253.69
739.80	253.37
740.13	253.06
740.46	252.72
740.79	252.36
741.12	252.04
741.45	251.72
741.78	251.34
742.11	251.08
742.44	250.69
742.77	250.41
743.10	250.12
743.43	249.83
743.75	249.43
744.08	249.26
744.41	248.97
744.74	248.68
745.07	248.39
745.40	248.16
745.73	247.90
746.06	247.59
746.39	247.29
746.71	247.01
747.04	246.69
747.37	246.44
747.70	246.21
748.03	245.97
748.36	245.71
748.68	245.45
749.01	245.15
749.34	244.98
749.67	244.76
750.00	244.50
750.33	244.33
750.65	244.11
750.98	243.79
751.31	243.55
751.64	243.36
751.97	243.23
752.29	242.97
752.62	242.65
752.95	242.46
753.28	242.24
753.60	241.99
753.93	241.86
754.26	241.62
754.59	241.42
754.91	241.20
755.24	240.99
755.57	240.80
755.90	240.56
756.22	240.34
756.55	240.05
756.88	239.83
757.20	239.56
757.53	239.33
757.86	239.12
758.19	238.98
758.51	238.80
758.84	238.51
759.17	238.35
759.49	238.21
759.82	238.04
760.15	237.91
760.47	237.77
760.80	237.58
761.13	237.47
761.45	237.29
761.78	237.13
762.11	236.97
762.43	236.81
762.76	236.66
763.08	236.52
763.41	236.46
763.74	236.33
764.06	236.16
764.39	236.04
764.71	235.90
765.04	235.72
765.37	235.57
765.69	235.46
766.02	235.30
766.34	235.20
766.67	235.06
767.00	234.95
767.32	234.87
767.65	234.80
767.97	234.65
768.30	234.52
768.62	234.36
768.95	234.22
769.27	234.09
769.60	234.01
769.92	233.89
770.25	233.71
770.57	233.59
770.90	233.51
771.22	233.41
771.55	233.29
771.87	233.17
772.20	233.09
772.52	233.05
772.85	233.04
773.17	232.91
773.50	232.81
773.82	232.68
774.15	232.59
774.47	232.44
774.80	232.34
775.12	232.24
775.45	232.18
775.77	232.14
776.09	232.06
776.42	232.00
776.74	231.96
777.07	231.91
777.39	231.84
777.72	231.77
778.04	231.70
778.36	231.64
778.69	231.57
779.01	231.48
779.33	231.35
779.66	231.21
779.98	231.16
780.31	231.08
780.63	231.06
780.95	230.95
781.28	230.87
781.60	230.83
781.92	230.77
782.25	230.73
782.57	230.67
782.89	230.61
783.22	230.51
783.54	230.43
783.86	230.40
784.19	230.34
784.51	230.30
784.83	230.28
785.16	230.21
785.48	230.19
785.80	230.12
786.12	230.07
786.45	230.03
786.77	230.00
787.09	229.92
787.42	229.86
787.74	229.81
788.06	229.78
788.38	229.74
788.71	229.67
789.03	229.61
789.35	229.57
789.67	229.54
789.99	229.51
790.32	229.47
790.64	229.42
790.96	229.49
791.28	229.43
791.61	229.33
791.93	229.32
792.25	229.26
792.57	229.32
792.89	229.25
793.21	229.21
793.54	229.17
793.86	229.16
794.18	229.12
794.50	229.10
794.82	229.05
795.14	228.99
795.47	228.97
795.79	228.95
796.11	228.90
796.43	228.85
796.75	228.83
797.07	228.76
797.39	228.69
797.71	228.55
798.04	228.52
798.36	228.50
798.68	228.46
799.00	228.44
799.32	228.34
799.64	228.34
799.96	228.29
800.28	228.27
800.60	228.24
800.92	228.18
801.24	228.14
801.56	228.14
801.89	228.11
802.21	228.13
802.53	228.06
802.85	228.02
803.17	228.07
803.49	227.99
803.81	227.94
804.13	227.91
804.45	227.88
804.77	227.83
805.09	227.79
805.41	227.75
805.73	227.70
806.05	227.62
806.37	227.56
806.69	227.51
807.01	227.44
807.33	227.40
807.65	227.39
807.97	227.37
808.28	227.29
808.60	227.29
808.92	227.21
809.24	227.25
809.56	227.21
809.88	227.10
810.20	227.10
810.52	227.09
810.84	227.03
811.16	226.98
811.48	226.92
811.80	226.94
812.12	226.92
812.43	226.89
812.75	226.90
813.07	226.86
813.39	226.86
813.71	226.85
814.03	226.80
814.35	226.74
814.67	226.70
814.98	226.69
815.30	226.60
815.62	226.56
815.94	226.48
816.26	226.49
816.58	226.43
816.89	226.38
817.21	226.36
817.53	226.38
817.85	226.38
818.17	226.36
818.48	226.28
818.80	226.24
819.12	226.23
819.44	226.23
819.76	226.26
820.07	226.25
820.39	226.21
820.71	226.24
821.03	226.23
821.34	226.19
821.66	226.17
821.98	226.19
822.30	226.18
822.61	226.24
822.93	226.18
823.25	226.20
823.57	226.20
823.88	226.18
824.20	226.16
824.52	226.16
824.83	226.17
825.15	226.17
825.47	226.16
825.79	226.17
826.10	226.12
826.42	226.06
826.74	226.06
827.05	226.05
827.37	226.01
827.69	226.01
828.00	226.05
828.32	226.03
828.64	226.03
828.95	226.08
829.27	226.05
829.58	226.08
829.90	226.13
830.22	226.15
830.53	226.15
830.85	226.16
831.17	226.15
831.48	226.15
831.80	226.16
832.11	226.15
832.43	226.13
832.75	226.11
833.06	226.16
833.38	226.13
833.69	226.12
834.01	226.11
834.32	226.05
834.64	226.02
834.96	226.02
835.27	225.99
835.59	225.95
835.90	225.93
836.22	225.90
836.53	225.85
836.85	225.83
837.16	225.89
837.48	225.89
837.79	225.92
838.11	225.92
838.42	225.88
838.74	225.90
839.05	225.88
839.37	225.90
839.68	225.83
840.00	225.81
840.31	225.83
840.63	225.85
840.94	225.89
841.26	225.87
841.57	225.87
841.88	225.90
842.20	225.90
842.51	225.88
842.83	225.87
843.14	225.95
843.46	225.95
843.77	225.89
844.08	225.84
844.40	225.78
844.71	225.77
845.03	225.79
845.34	225.76
845.65	225.75
845.97	225.68
846.28	225.68
846.60	225.68
846.91	225.67
847.22	225.66
847.54	225.64
847.85	225.64
848.16	225.60
848.48	225.56
848.79	225.57
849.10	225.56
849.42	225.56
849.73	225.43
850.04	225.39
850.36	225.35
850.67	225.40
850.98	225.40
851.30	225.39
851.61	225.37
851.92	225.35
852.23	225.39
852.55	225.39
852.86	225.37
853.17	225.36
853.49	225.38
853.80	225.39
854.11	225.43
854.42	225.43
854.74	225.43
855.05	225.40
855.36	225.35
855.67	225.36
855.99	225.38
856.30	225.48
856.61	225.50
856.92	225.47
857.23	225.43
857.55	225.43
857.86	225.43
858.17	225.42
858.48	225.43
858.79	225.41
859.11	225.46
859.42	225.46
859.73	225.48
860.04	225.44
860.35	225.38
860.66	225.34
860.98	225.34
861.29	225.38
861.60	225.40
861.91	225.42
862.22	225.40
862.53	225.37
862.84	225.29
863.16	225.31
863.47	225.31
863.78	225.29
864.09	225.32
864.40	225.29
864.71	225.31
865.02	225.29
865.33	225.29
865.64	225.26
865.95	225.26
866.27	225.31
866.58	225.31
866.89	225.33
867.20	225.34
867.51	225.32
867.82	225.28
868.13	225.33
868.44	225.32
868.75	225.32
869.06	225.33
869.37	225.34
869.68	225.31
869.99	225.35
870.30	225.40
870.61	225.39
870.92	225.40
871.23	225.38
871.54	225.40
871.85	225.43
872.16	225.45
872.47	225.45
872.78	225.41
873.09	225.41
873.40	225.40
873.71	225.41
874.02	225.41
874.33	225.46
874.64	225.44
874.95	225.47
875.26	225.45
875.56	225.42
875.87	225.41
876.18	225.37
876.49	225.47
876.80	225.46
877.11	225.42
877.42	225.40
877.73	225.43
878.04	225.40
878.35	225.35
878.66	225.35
878.96	225.34
879.27	225.35
879.58	225.33
879.89	225.31
880.20	225.35
880.51	225.37
880.82	225.31
881.12	225.30
881.43	225.29
881.74	225.29
882.05	225.32
882.36	225.31
882.67	225.37
882.97	225.24
883.28	225.20
883.59	225.20
883.90	225.24
884.21	225.24
884.51	225.25
884.82	225.24
885.13	225.22
885.44	225.21
885.74	225.18
886.05	225.20
886.36	225.20
886.67	225.14
886.98	225.16
887.28	225.16
887.59	225.16
887.90	225.12
888.20	225.08
888.51	225.06
888.82	225.02
889.13	224.98
889.43	225.07
889.74	225.09
890.05	225.10
890.35	225.03
890.66	224.98
890.97	224.95
891.28	224.93
891.58	224.94
891.89	224.95
892.20	224.92
892.50	224.89
892.81	224.88
893.12	224.88
893.42	224.79
893.73	224.79
894.04	224.79
894.34	224.79
894.65	224.79
894.95	224.76
895.26	224.79
895.57	224.83
895.87	224.73
896.18	224.72
896.48	224.69
896.79	224.72
897.10	224.75
897.40	224.79
897.71	224.82
898.01	224.80
898.32	224.81
898.63	224.81
898.93	224.84
899.24	224.84
899.54	224.82
899.85	224.86
900.15	224.85
900.46	224.81
900.76	224.80
901.07	224.81
901.38	224.81
901.68	224.83
901.99	224.80
902.29	224.79
902.60	224.81
902.90	224.79
903.21	224.79
903.51	224.78
903.82	224.77
904.12	224.79
904.43	224.78
904.73	224.75
905.03	224.76
905.34	224.84
905.64	224.83
905.95	224.84
906.25	224.86
906.56	224.83
906.86	224.84
907.17	224.87
907.47	224.87
907.77	224.89
908.08	224.87
908.38	224.86
908.69	224.86
908.99	224.87
909.30	224.92
909.60	224.93
909.90	224.94
910.21	224.92
910.51	224.88
910.81	224.89
911.12	224.92
911.42	224.90
911.73	224.79
912.03	224.81
912.33	224.83
912.64	224.81
912.94	224.82
913.24	224.82
913.55	224.82
913.85	224.85
914.15	224.84
914.46	224.86
914.76	224.85
915.06	224.84
915.37	224.79
915.67	224.79
915.97	224.75
916.27	224.74
916.58	224.77
916.88	224.77
917.18	224.76
917.49	224.83
917.79	224.83
918.09	224.84
918.39	224.87
918.70	224.85
919.00	224.87
919.30	224.97
919.60	224.96
919.91	224.98
920.21	224.95
920.51	224.93
920.81	224.91
921.12	224.95
921.42	224.98
921.72	225.01
922.02	224.98
922.32	225.01
922.63	224.97
922.93	224.98
923.23	224.98
923.53	224.99
923.83	224.91
924.13	224.92
924.44	224.90
924.74	224.91
925.04	224.95
925.34	224.93
925.64	224.84
925.94	224.82
926.24	224.86
926.55	224.85
926.85	224.91
927.15	224.91
927.45	224.89
927.75	224.89
928.05	224.88
928.35	224.88
928.65	224.90
928.95	224.94
929.26	224.90
929.56	224.94
929.86	224.93
930.16	224.92
930.46	224.91
930.76	224.95
931.06	224.88
931.36	224.85
931.66	224.85
931.96	224.85
932.26	224.86
932.56	224.84
932.86	224.86
933.16	224.84
933.46	224.82
933.76	224.79
934.06	224.78
934.36	224.82
934.66	224.82
934.96	224.80
935.26	224.82
935.56	224.81
935.86	224.76
936.16	224.76
936.46	224.74
936.76	224.75
937.06	224.67
937.36	224.67
937.66	224.68
937.96	224.65
938.26	224.64
938.56	224.63
938.86	224.58
939.16	224.57
939.46	224.56
939.76	224.57
940.06	224.59
940.35	224.54
940.65	224.49
940.95	224.46
941.25	224.44
941.55	224.41
941.85	224.44
942.15	224.46
942.45	224.47
942.75	224.49
943.04	224.45
943.34	224.54
943.64	224.54
943.94	224.51
944.24	224.52
944.54	224.53
944.84	224.51
945.13	224.49
945.43	224.48
945.73	224.45
946.03	224.44
946.33	224.44
946.62	224.45
946.92	224.47
947.22	224.48
947.52	224.51
947.82	224.53
948.11	224.51
948.41	224.52
948.71	224.49
949.01	224.51
949.31	224.50
949.60	224.46
949.90	224.46
950.20	224.45
950.50	224.44
950.79	224.44
951.09	224.47
951.39	224.49
951.69	224.49
951.98	224.52
952.28	224.53
952.58	224.52
952.87	224.52
953.17	224.52
953.47	224.49
953.76	224.49
954.06	224.44
954.36	224.40
954.66	224.40
954.95	224.45
955.25	224.41
955.55	224.46
955.84	224.44
956.14	224.46
956.44	224.49
956.73	224.49
957.03	224.49
957.32	224.49
957.62	224.50
957.92	224.51
958.21	224.48
958.51	224.57
958.81	224.57
959.10	224.62
959.40	224.63
959.69	224.68
959.99	224.67
960.29	224.68
960.58	224.66
960.88	224.68
961.17	224.66
961.47	224.70
961.76	224.68
962.06	224.71
962.36	224.66
962.65	224.67
962.95	224.70
963.24	224.69
963.54	224.69
963.83	224.69
964.13	224.70
964.42	224.69
964.72	224.63
965.01	224.66
965.31	224.62
965.60	224.61
965.90	224.65
966.19	224.64
966.49	224.66
966.78	224.69
967.08	224.69
967.37	224.71
967.67	224.69
967.96	224.70
968.26	224.70
968.55	224.73
968.85	224.73
969.14	224.68
969.43	224.66
969.73	224.66
970.02	224.64
970.32	224.64
970.61	224.66
970.91	224.64
971.20	224.64
971.49	224.63
971.79	224.65
972.08	224.59
972.38	224.61
972.67	224.57
972.96	224.58
973.26	224.59
973.55	224.61
973.85	224.61
974.14	224.59
974.43	224.57
974.73	224.54
975.02	224.52
975.31	224.55
975.61	224.57
975.90	224.57
976.19	224.54
976.49	224.57
976.78	224.55
977.07	224.54
977.37	224.52
977.66	224.52
977.95	224.50
978.24	224.51
978.54	224.49
978.83	224.52
979.12	224.50
979.42	224.46
979.71	224.40
980.00	224.36
980.29	224.37
980.59	224.40
980.88	224.43
981.17	224.41
981.46	224.41
981.76	224.39
982.05	224.40
982.34	224.45
982.63	224.44
982.93	224.45
983.22	224.48
983.51	224.47
983.80	224.52
984.09	224.54
984.39	224.57
984.68	224.59
984.97	224.61
985.26	224.63
985.55	224.64
985.85	224.64
986.14	224.70
986.43	224.72
986.72	224.72
987.01	224.68
987.30	224.70
987.59	224.71
987.89	224.76
988.18	224.73
988.47	224.69
988.76	224.68
989.05	224.65
989.34	224.65
989.63	224.70
989.92	224.67
990.22	224.64
990.51	224.61
990.80	224.56
991.09	224.54
991.38	224.55
991.67	224.52
991.96	224.51
992.25	224.53
992.54	224.52
992.83	224.52
993.12	224.52
993.41	224.53
993.70	224.56
993.99	224.53
994.28	224.54
994.58	224.60
994.87	224.58
995.16	224.60
995.45	224.55
995.74	224.50
996.03	224.52
996.32	224.52
996.61	224.55
996.90	224.57
997.19	224.57
997.48	224.58
997.77	224.59
998.06	224.59
998.34	224.54
998.63	224.56
998.92	224.56
999.21	224.57
999.50	224.60
999.79	224.52
1000.08	224.52
1000.37	224.52
1000.66	224.49
1000.95	224.53
1001.24	224.53
1001.53	224.57
1001.82	224.58
1002.11	224.55
1002.40	224.57
1002.68	224.58
1002.97	224.64
1003.26	224.65
1003.55	224.64
1003.84	224.67
1004.13	224.67
1004.42	224.70
1004.71	224.69
1004.99	224.67
1005.28	224.67
1005.57	224.64
1005.86	224.64
1006.15	224.64
1006.44	224.62
1006.72	224.63
1007.01	224.60
1007.30	224.58
1007.59	224.57
1007.88	224.53
1008.17	224.54
1008.45	224.52
1008.74	224.46
1009.03	224.42
1009.32	224.38
1009.60	224.36
1009.89	224.31
1010.18	224.31
1010.47	224.27
1010.76	224.26
1011.04	224.26
1011.33	224.30
1011.62	224.31
1011.91	224.34
1012.19	224.31
1012.48	224.35
1012.77	224.33
1013.05	224.38
1013.34	224.39
1013.63	224.41
1013.92	224.44
1014.20	224.43
1014.49	224.45
1014.78	224.48
1015.06	224.46
1015.35	224.48
1015.64	224.49
1015.92	224.52
1016.21	224.53
1016.50	224.55
1016.78	224.57
1017.07	224.59
1017.36	224.53
1017.64	224.53
1017.93	224.52
1018.22	224.55
1018.50	224.53
1018.79	224.51
1019.08	224.47
1019.36	224.51
1019.65	224.50
1019.93	224.53
1020.22	224.56
1020.51	224.57
1020.79	224.58
1021.08	224.67
1021.36	224.23
1021.65	224.15
1021.94	224.58
1022.22	224.95
1022.51	224.47
1022.79	225.09
1023.08	225.26
1023.36	225.20
1023.65	224.60
>>>>>End Processed Spectral Data<<<<<
