SpectraSuite Data File
++++++++++++++++++++++++++++++++++++
Date: Fri Feb 01 18:09:45 EST 2013
User: group
Dark Spectrum Present: No
Reference Spectrum Present: No
Number of Sampled Component Spectra: 1
Spectrometers: USB2E7196
Integration Time (usec): 35000 (USB2E7196)
Spectra Averaged: 100 (USB2E7196)
Boxcar Smoothing: 10 (USB2E7196)
Correct for Electrical Dark: No (USB2E7196)
Strobe/Lamp Enabled: No (USB2E7196)
Correct for Detector Non-linearity: No (USB2E7196)
Correct for Stray Light: No (USB2E7196)
Number of Pixels in Processed Spectrum: 2048
>>>>>Begin Processed Spectral Data<<<<<
339.09	0.00
339.48	213.05
339.86	214.87
340.24	216.01
340.63	216.94
341.01	220.70
341.39	219.82
341.78	221.70
342.16	222.75
342.54	222.56
342.93	211.80
343.31	222.49
343.69	223.05
344.07	223.53
344.46	223.96
344.84	224.37
345.22	224.59
345.60	224.84
345.99	225.04
346.37	225.16
346.75	225.31
347.13	225.38
347.52	225.42
347.90	225.48
348.28	225.49
348.66	225.53
349.05	225.52
349.43	225.55
349.81	225.58
350.19	225.63
350.57	225.71
350.96	225.74
351.34	225.81
351.72	225.89
352.10	225.97
352.48	226.04
352.87	226.10
353.25	226.17
353.63	226.22
354.01	226.28
354.39	226.36
354.77	226.44
355.15	226.49
355.54	226.55
355.92	226.57
356.30	226.66
356.68	226.76
357.06	226.86
357.44	226.91
357.82	226.98
358.20	227.01
358.58	227.07
358.97	227.10
359.35	227.20
359.73	227.26
360.11	227.30
360.49	227.35
360.87	227.38
361.25	227.45
361.63	227.56
362.01	227.62
362.39	227.62
362.77	227.64
363.15	227.69
363.53	227.73
363.91	227.75
364.29	227.75
364.67	227.70
365.05	227.67
365.43	227.67
365.81	227.68
366.19	227.73
366.57	227.73
366.95	227.77
367.33	227.74
367.71	227.72
368.09	227.74
368.47	227.71
368.85	227.69
369.23	227.67
369.61	227.60
369.99	227.60
370.37	227.59
370.75	227.63
371.13	227.57
371.51	227.51
371.89	227.48
372.27	227.46
372.65	227.38
373.03	227.38
373.41	227.32
373.78	227.28
374.16	227.21
374.54	227.15
374.92	227.05
375.30	226.99
375.68	226.97
376.06	226.90
376.44	226.84
376.82	226.80
377.19	226.74
377.57	226.69
377.95	226.58
378.33	226.55
378.71	226.42
379.09	226.39
379.47	226.34
379.84	226.28
380.22	226.22
380.60	226.16
380.98	226.06
381.36	226.03
381.73	225.97
382.11	225.88
382.49	225.83
382.87	225.79
383.25	225.72
383.62	225.81
384.00	225.76
384.38	225.74
384.76	225.69
385.13	225.69
385.51	225.63
385.89	225.58
386.27	225.52
386.64	225.50
387.02	225.47
387.40	225.44
387.78	225.43
388.15	225.40
388.53	225.36
388.91	225.35
389.29	225.32
389.66	225.32
390.04	225.34
390.42	225.33
390.79	225.35
391.17	225.34
391.55	225.21
391.92	225.19
392.30	225.19
392.68	225.15
393.05	225.13
393.43	225.16
393.81	225.19
394.18	225.21
394.56	225.19
394.94	225.20
395.31	225.18
395.69	225.23
396.06	225.27
396.44	225.32
396.82	225.33
397.19	225.41
397.57	225.44
397.95	225.46
398.32	225.48
398.70	225.53
399.07	225.62
399.45	225.67
399.82	225.73
400.20	225.76
400.58	225.89
400.95	225.94
401.33	226.02
401.70	226.19
402.08	226.25
402.45	226.35
402.83	226.49
403.20	226.61
403.58	226.72
403.95	226.84
404.33	226.97
404.71	227.13
405.08	227.33
405.46	227.48
405.83	227.66
406.21	227.85
406.58	228.05
406.96	228.21
407.33	228.42
407.70	228.67
408.08	229.02
408.45	229.28
408.83	229.56
409.20	229.84
409.58	230.05
409.95	230.39
410.33	230.77
410.70	231.08
411.08	231.49
411.45	231.89
411.82	232.30
412.20	232.79
412.57	233.32
412.95	233.73
413.32	234.26
413.69	234.83
414.07	235.39
414.44	236.01
414.82	236.65
415.19	237.39
415.56	238.10
415.94	238.87
416.31	239.73
416.68	240.58
417.06	241.56
417.43	242.47
417.81	243.52
418.18	244.59
418.55	245.73
418.93	246.92
419.30	248.14
419.67	249.43
420.04	250.73
420.42	252.13
420.79	253.72
421.16	255.29
421.54	256.91
421.91	258.61
422.28	260.34
422.66	262.22
423.03	264.04
423.40	265.93
423.77	267.87
424.15	269.88
424.52	272.00
424.89	274.24
425.26	276.42
425.64	278.46
426.01	280.71
426.38	283.06
426.75	285.39
427.13	287.83
427.50	290.39
427.87	293.05
428.24	295.65
428.61	298.14
428.99	300.88
429.36	303.85
429.73	306.79
430.10	309.65
430.47	312.55
430.85	315.51
431.22	318.63
431.59	321.93
431.96	325.06
432.33	328.52
432.70	331.85
433.08	335.81
433.45	339.50
433.82	343.12
434.19	347.16
434.56	351.13
434.93	354.87
435.30	358.54
435.68	362.61
436.05	366.59
436.42	370.56
436.79	374.13
437.16	377.94
437.53	381.91
437.90	385.80
438.27	389.67
438.64	393.65
439.01	397.31
439.38	400.47
439.75	403.52
440.13	407.01
440.50	410.33
440.87	412.97
441.24	415.73
441.61	418.81
441.98	420.91
442.35	423.48
442.72	426.12
443.09	428.66
443.46	430.08
443.83	430.94
444.20	431.58
444.57	432.81
444.94	433.19
445.31	433.67
445.68	434.18
446.05	434.26
446.42	433.78
446.79	433.27
447.16	432.70
447.53	432.29
447.90	430.71
448.27	429.06
448.64	426.81
449.01	425.23
449.37	422.44
449.74	419.79
450.11	416.61
450.48	413.10
450.85	409.54
451.22	406.52
451.59	403.70
451.96	401.02
452.33	397.30
452.70	393.98
453.07	389.99
453.43	385.98
453.80	382.15
454.17	378.37
454.54	374.73
454.91	370.86
455.28	367.07
455.65	363.53
456.02	360.04
456.38	357.01
456.75	353.24
457.12	350.09
457.49	346.96
457.86	343.93
458.23	341.31
458.59	338.42
458.96	335.46
459.33	332.82
459.70	330.18
460.07	328.06
460.43	325.65
460.80	323.35
461.17	321.27
461.54	319.08
461.91	317.02
462.27	314.97
462.64	313.19
463.01	311.27
463.38	309.36
463.74	307.48
464.11	305.80
464.48	304.32
464.85	302.73
465.21	301.46
465.58	300.14
465.95	298.60
466.32	297.35
466.68	296.07
467.05	294.76
467.42	293.48
467.78	292.17
468.15	290.95
468.52	289.96
468.88	288.74
469.25	287.66
469.62	286.77
469.98	285.81
470.35	284.93
470.72	284.06
471.08	283.17
471.45	282.39
471.82	281.61
472.18	280.75
472.55	280.11
472.92	279.35
473.28	278.70
473.65	278.02
474.02	277.33
474.38	276.78
474.75	276.25
475.11	275.72
475.48	275.29
475.85	274.92
476.21	274.57
476.58	274.25
476.94	274.01
477.31	273.72
477.67	273.42
478.04	273.18
478.41	273.04
478.77	272.98
479.14	272.81
479.50	272.77
479.87	272.80
480.23	272.80
480.60	272.78
480.96	272.76
481.33	272.87
481.69	273.04
482.06	273.16
482.42	273.34
482.79	273.57
483.15	273.88
483.52	274.19
483.88	274.52
484.25	274.90
484.61	275.28
484.98	275.72
485.34	276.30
485.71	276.93
486.07	277.52
486.44	278.10
486.80	278.83
487.17	279.58
487.53	280.43
487.90	281.33
488.26	282.36
488.62	283.42
488.99	284.50
489.35	285.61
489.72	286.81
490.08	288.10
490.44	289.40
490.81	290.81
491.17	292.26
491.54	293.86
491.90	295.52
492.26	297.27
492.63	299.12
492.99	301.08
493.36	303.09
493.72	305.34
494.08	307.58
494.45	309.97
494.81	312.48
495.17	315.05
495.54	317.82
495.90	320.66
496.26	323.66
496.63	326.81
496.99	330.11
497.35	333.60
497.72	337.21
498.08	340.98
498.44	344.94
498.80	349.18
499.17	353.48
499.53	357.92
499.89	362.62
500.26	367.47
500.62	372.46
500.98	377.77
501.34	383.22
501.71	388.94
502.07	394.78
502.43	400.79
502.79	407.05
503.16	413.52
503.52	420.27
503.88	427.14
504.24	434.21
504.60	441.67
504.97	449.37
505.33	457.28
505.69	465.57
506.05	473.94
506.41	482.41
506.78	491.16
507.14	500.30
507.50	509.73
507.86	519.44
508.22	529.34
508.59	539.31
508.95	549.64
509.31	560.29
509.67	571.26
510.03	582.41
510.39	593.86
510.75	605.55
511.12	617.41
511.48	629.65
511.84	642.13
512.20	654.56
512.56	667.54
512.92	680.73
513.28	694.20
513.64	707.84
514.00	721.74
514.37	735.96
514.73	750.18
515.09	764.41
515.45	778.96
515.81	793.78
516.17	809.12
516.53	824.60
516.89	840.13
517.25	855.62
517.61	871.55
517.97	887.55
518.33	903.45
518.69	919.84
519.05	936.30
519.41	952.99
519.77	970.12
520.13	987.23
520.49	1004.37
520.85	1021.40
521.21	1038.71
521.57	1056.69
521.93	1074.10
522.29	1092.34
522.65	1110.50
523.01	1128.51
523.37	1146.46
523.73	1164.43
524.09	1182.30
524.45	1200.42
524.81	1219.10
525.17	1237.83
525.53	1256.59
525.89	1275.51
526.25	1294.40
526.61	1312.84
526.97	1331.86
527.33	1350.53
527.68	1369.15
528.04	1387.71
528.40	1406.42
528.76	1425.68
529.12	1444.45
529.48	1463.69
529.84	1482.04
530.20	1500.94
530.56	1520.21
530.91	1539.95
531.27	1559.11
531.63	1578.00
531.99	1597.08
532.35	1615.43
532.71	1633.71
533.07	1652.56
533.42	1670.98
533.78	1689.37
534.14	1708.16
534.50	1725.81
534.86	1744.20
535.21	1761.87
535.57	1780.31
535.93	1798.29
536.29	1815.60
536.65	1833.18
537.00	1850.39
537.36	1868.18
537.72	1885.16
538.08	1902.16
538.44	1918.41
538.79	1934.87
539.15	1950.98
539.51	1967.31
539.87	1984.38
540.22	2000.79
540.58	2017.08
540.94	2032.78
541.29	2048.24
541.65	2063.50
542.01	2079.41
542.37	2094.32
542.72	2109.38
543.08	2123.69
543.44	2138.82
543.79	2152.70
544.15	2166.28
544.51	2180.48
544.87	2193.78
545.22	2207.13
545.58	2219.95
545.94	2232.25
546.29	2244.53
546.65	2257.06
547.01	2268.69
547.36	2279.75
547.72	2290.54
548.07	2300.79
548.43	2311.32
548.79	2321.50
549.14	2331.55
549.50	2341.02
549.86	2350.79
550.21	2360.27
550.57	2369.73
550.92	2378.58
551.28	2387.76
551.64	2396.94
551.99	2405.55
552.35	2414.09
552.70	2422.30
553.06	2430.35
553.41	2438.91
553.77	2446.80
554.13	2454.86
554.48	2463.03
554.84	2470.72
555.19	2477.72
555.55	2484.95
555.90	2491.53
556.26	2498.66
556.61	2504.95
556.97	2511.22
557.32	2517.24
557.68	2523.22
558.03	2529.30
558.39	2534.53
558.74	2541.05
559.10	2546.74
559.45	2552.07
559.81	2557.84
560.16	2563.48
560.52	2568.45
560.87	2573.35
561.23	2577.59
561.58	2582.01
561.94	2586.06
562.29	2589.50
562.64	2593.97
563.00	2597.88
563.35	2602.83
563.71	2607.29
564.06	2612.00
564.42	2616.17
564.77	2620.09
565.12	2623.90
565.48	2627.20
565.83	2630.44
566.19	2632.97
566.54	2634.75
566.89	2637.18
567.25	2639.09
567.60	2641.48
567.96	2644.26
568.31	2646.29
568.66	2648.57
569.02	2650.03
569.37	2651.30
569.72	2653.24
570.08	2654.18
570.43	2654.84
570.78	2655.09
571.14	2654.21
571.49	2653.41
571.84	2653.84
572.20	2653.39
572.55	2652.85
572.90	2651.65
573.26	2650.71
573.61	2649.43
573.96	2648.41
574.31	2645.71
574.67	2642.87
575.02	2639.26
575.37	2635.91
575.72	2632.12
576.08	2628.66
576.43	2625.50
576.78	2621.88
577.13	2618.63
577.49	2615.53
577.84	2612.33
578.19	2608.37
578.54	2604.79
578.90	2600.55
579.25	2594.56
579.60	2589.24
579.95	2583.91
580.30	2578.56
580.66	2573.00
581.01	2567.44
581.36	2561.90
581.71	2557.51
582.06	2552.74
582.42	2547.92
582.77	2542.38
583.12	2537.54
583.47	2532.76
583.82	2527.57
584.17	2522.03
584.53	2516.03
584.88	2509.80
585.23	2503.35
585.58	2497.17
585.93	2491.04
586.28	2485.64
586.63	2480.28
586.98	2474.63
587.34	2469.27
587.69	2463.81
588.04	2457.95
588.39	2451.68
588.74	2444.32
589.09	2437.15
589.44	2429.55
589.79	2422.46
590.14	2415.82
590.49	2408.22
590.84	2400.69
591.19	2393.56
591.54	2385.83
591.89	2377.46
592.25	2369.85
592.60	2361.55
592.95	2353.10
593.30	2344.57
593.65	2335.75
594.00	2327.43
594.35	2319.02
594.70	2309.59
595.05	2301.39
595.40	2293.05
595.75	2284.40
596.10	2277.32
596.45	2269.58
596.80	2262.32
597.15	2254.93
597.50	2246.93
597.85	2239.23
598.19	2231.63
598.54	2223.54
598.89	2215.89
599.24	2208.94
599.59	2201.08
599.94	2193.71
600.29	2186.15
600.64	2178.24
600.99	2169.62
601.34	2161.61
601.69	2153.42
602.04	2145.52
602.39	2136.65
602.74	2128.52
603.08	2120.45
603.43	2112.33
603.78	2103.62
604.13	2095.02
604.48	2086.41
604.83	2078.03
605.18	2069.87
605.53	2060.18
605.87	2050.50
606.22	2041.77
606.57	2032.27
606.92	2023.33
607.27	2014.76
607.62	2006.53
607.96	1998.10
608.31	1990.31
608.66	1981.19
609.01	1972.21
609.36	1963.20
609.70	1953.79
610.05	1944.21
610.40	1935.04
610.75	1925.18
611.10	1915.97
611.44	1905.72
611.79	1896.03
612.14	1885.75
612.49	1874.69
612.83	1864.73
613.18	1855.03
613.53	1845.26
613.88	1835.04
614.22	1825.10
614.57	1814.75
614.92	1805.04
615.27	1796.03
615.61	1786.04
615.96	1776.35
616.31	1767.14
616.65	1758.21
617.00	1749.09
617.35	1739.71
617.70	1729.88
618.04	1719.81
618.39	1709.95
618.74	1701.11
619.08	1691.15
619.43	1682.10
619.78	1673.78
620.12	1665.21
620.47	1656.19
620.82	1646.45
621.16	1637.44
621.51	1628.26
621.85	1618.98
622.20	1608.80
622.55	1598.50
622.89	1588.97
623.24	1579.79
623.59	1570.69
623.93	1561.47
624.28	1552.75
624.62	1543.76
624.97	1534.99
625.32	1526.69
625.66	1518.33
626.01	1509.65
626.35	1500.90
626.70	1491.43
627.04	1482.26
627.39	1472.91
627.73	1463.92
628.08	1455.58
628.43	1447.04
628.77	1438.29
629.12	1429.30
629.46	1420.73
629.81	1411.75
630.15	1403.08
630.50	1394.24
630.84	1384.59
631.19	1375.06
631.53	1365.96
631.88	1356.95
632.22	1347.82
632.57	1339.08
632.91	1329.96
633.26	1321.03
633.60	1312.02
633.95	1303.40
634.29	1294.82
634.64	1286.80
634.98	1277.98
635.32	1269.39
635.67	1261.27
636.01	1253.34
636.36	1245.34
636.70	1237.40
637.05	1229.60
637.39	1221.85
637.73	1214.13
638.08	1207.02
638.42	1200.05
638.77	1192.38
639.11	1184.52
639.45	1176.89
639.80	1168.88
640.14	1161.26
640.49	1153.51
640.83	1146.07
641.17	1138.87
641.52	1131.43
641.86	1123.71
642.20	1116.73
642.55	1109.25
642.89	1101.69
643.23	1093.79
643.58	1086.85
643.92	1079.63
644.26	1072.54
644.61	1065.29
644.95	1058.10
645.29	1050.40
645.64	1042.35
645.98	1034.78
646.32	1027.76
646.66	1020.65
647.01	1013.92
647.35	1007.19
647.69	1000.18
648.04	993.58
648.38	986.71
648.72	979.63
649.06	972.48
649.41	965.60
649.75	958.53
650.09	951.40
650.43	944.62
650.78	937.38
651.12	930.25
651.46	923.47
651.80	916.86
652.14	910.46
652.49	904.07
652.83	897.96
653.17	891.39
653.51	884.71
653.85	878.33
654.20	871.65
654.54	864.53
654.88	857.79
655.22	850.79
655.56	843.96
655.90	837.48
656.25	831.34
656.59	824.96
656.93	819.05
657.27	813.03
657.61	806.61
657.95	800.60
658.29	794.60
658.64	788.32
658.98	781.98
659.32	775.49
659.66	769.35
660.00	763.15
660.34	757.29
660.68	751.49
661.02	745.56
661.36	740.02
661.70	734.69
662.05	729.60
662.39	724.57
662.73	719.35
663.07	714.18
663.41	708.88
663.75	703.68
664.09	698.23
664.43	693.02
664.77	688.24
665.11	683.25
665.45	678.39
665.79	673.64
666.13	668.79
666.47	664.05
666.81	659.27
667.15	654.36
667.49	649.75
667.83	645.22
668.17	640.55
668.51	635.81
668.85	631.08
669.19	626.53
669.53	621.93
669.87	617.43
670.21	613.11
670.55	608.87
670.89	604.78
671.23	600.80
671.57	596.68
671.91	592.52
672.25	588.33
672.58	584.18
672.92	580.07
673.26	576.30
673.60	572.56
673.94	568.81
674.28	565.41
674.62	561.94
674.96	558.32
675.30	554.94
675.64	551.45
675.97	548.18
676.31	544.79
676.65	541.42
676.99	538.22
677.33	534.79
677.67	531.48
678.01	527.96
678.34	524.51
678.68	521.14
679.02	517.80
679.36	514.58
679.70	511.39
680.04	508.19
680.37	504.91
680.71	501.67
681.05	498.63
681.39	495.45
681.73	492.32
682.06	489.33
682.40	486.37
682.74	483.38
683.08	480.35
683.42	477.30
683.75	474.40
684.09	471.37
684.43	468.56
684.77	465.62
685.10	462.78
685.44	459.99
685.78	457.25
686.12	454.58
686.45	451.88
686.79	449.22
687.13	446.65
687.46	444.04
687.80	441.44
688.14	438.76
688.48	436.32
688.81	433.68
689.15	431.20
689.49	428.62
689.82	426.12
690.16	423.61
690.50	421.30
690.83	418.95
691.17	416.59
691.51	414.32
691.84	412.19
692.18	409.91
692.52	407.59
692.85	405.25
693.19	403.00
693.52	400.81
693.86	398.62
694.20	396.51
694.53	394.40
694.87	392.20
695.21	390.11
695.54	387.89
695.88	385.82
696.21	383.75
696.55	381.73
696.88	379.80
697.22	377.84
697.56	375.90
697.89	373.99
698.23	372.15
698.56	370.20
698.90	368.34
699.23	366.46
699.57	364.65
699.90	362.89
700.24	361.05
700.58	359.30
700.91	357.55
701.25	355.84
701.58	354.22
701.92	352.61
702.25	350.98
702.59	349.42
702.92	347.87
703.26	346.30
703.59	344.82
703.93	343.41
704.26	341.98
704.60	340.45
704.93	338.95
705.26	337.47
705.60	336.08
705.93	334.61
706.27	333.34
706.60	332.09
706.94	330.83
707.27	329.53
707.61	328.20
707.94	326.96
708.27	325.65
708.61	324.38
708.94	323.20
709.28	322.03
709.61	320.87
709.94	319.75
710.28	318.57
710.61	317.40
710.95	316.08
711.28	315.03
711.61	313.93
711.95	312.83
712.28	311.71
712.61	310.56
712.95	309.50
713.28	308.46
713.61	307.35
713.95	306.29
714.28	305.32
714.61	304.34
714.95	303.36
715.28	302.35
715.61	301.31
715.95	300.33
716.28	299.31
716.61	298.35
716.95	297.37
717.28	296.45
717.61	295.55
717.94	294.69
718.28	293.71
718.61	292.80
718.94	291.98
719.27	291.21
719.61	290.43
719.94	289.61
720.27	288.78
720.60	288.05
720.94	287.28
721.27	286.55
721.60	285.81
721.93	285.12
722.27	284.49
722.60	283.86
722.93	283.18
723.26	282.54
723.59	281.84
723.93	281.19
724.26	280.55
724.59	279.88
724.92	279.28
725.25	278.69
725.59	278.05
725.92	277.43
726.25	276.77
726.58	276.19
726.91	275.65
727.24	275.07
727.57	274.46
727.91	273.81
728.24	273.25
728.57	272.72
728.90	272.16
729.23	271.56
729.56	271.00
729.89	270.45
730.22	269.87
730.55	269.29
730.89	268.75
731.22	268.19
731.55	267.67
731.88	267.15
732.21	266.63
732.54	266.16
732.87	265.64
733.20	265.17
733.53	264.68
733.86	264.25
734.19	263.77
734.52	263.34
734.85	263.01
735.18	262.55
735.51	262.10
735.84	261.68
736.17	261.27
736.50	260.80
736.83	260.46
737.16	260.08
737.49	259.69
737.82	259.28
738.15	258.90
738.48	258.51
738.81	258.14
739.14	257.74
739.47	257.35
739.80	256.99
740.13	256.62
740.46	256.29
740.79	255.87
741.12	255.52
741.45	255.14
741.78	254.70
742.11	254.35
742.44	253.98
742.77	253.58
743.10	253.23
743.43	252.92
743.75	252.50
744.08	252.27
744.41	252.00
744.74	251.70
745.07	251.37
745.40	251.10
745.73	250.79
746.06	250.48
746.39	250.16
746.71	249.83
747.04	249.53
747.37	249.20
747.70	248.89
748.03	248.60
748.36	248.35
748.68	248.09
749.01	247.81
749.34	247.51
749.67	247.30
750.00	247.03
750.33	246.84
750.65	246.57
750.98	246.24
751.31	245.95
751.64	245.71
751.97	245.53
752.29	245.24
752.62	244.94
752.95	244.69
753.28	244.47
753.60	244.25
753.93	244.06
754.26	243.83
754.59	243.59
754.91	243.36
755.24	243.11
755.57	242.87
755.90	242.63
756.22	242.41
756.55	242.13
756.88	241.90
757.20	241.63
757.53	241.44
757.86	241.22
758.19	241.05
758.51	240.85
758.84	240.60
759.17	240.42
759.49	240.26
759.82	240.15
760.15	239.99
760.47	239.81
760.80	239.57
761.13	239.42
761.45	239.26
761.78	239.06
762.11	238.92
762.43	238.75
762.76	238.60
763.08	238.45
763.41	238.26
763.74	238.11
764.06	237.89
764.39	237.70
764.71	237.53
765.04	237.35
765.37	237.18
765.69	237.06
766.02	236.88
766.34	236.71
766.67	236.53
767.00	236.40
767.32	236.30
767.65	236.24
767.97	236.10
768.30	235.96
768.62	235.87
768.95	235.71
769.27	235.60
769.60	235.49
769.92	235.37
770.25	235.26
770.57	235.15
770.90	235.06
771.22	234.95
771.55	234.82
771.87	234.75
772.20	234.62
772.52	234.58
772.85	234.57
773.17	234.50
773.50	234.39
773.82	234.25
774.15	234.11
774.47	233.95
774.80	233.84
775.12	233.71
775.45	233.59
775.77	233.49
776.09	233.38
776.42	233.25
776.74	233.15
777.07	233.05
777.39	232.95
777.72	232.81
778.04	232.73
778.36	232.64
778.69	232.55
779.01	232.47
779.33	232.29
779.66	232.11
779.98	232.00
780.31	231.90
780.63	231.86
780.95	231.83
781.28	231.76
781.60	231.63
781.92	231.58
782.25	231.52
782.57	231.45
782.89	231.37
783.22	231.29
783.54	231.20
783.86	231.14
784.19	231.05
784.51	231.05
784.83	230.96
785.16	230.89
785.48	230.80
785.80	230.74
786.12	230.69
786.45	230.62
786.77	230.60
787.09	230.54
787.42	230.45
787.74	230.35
788.06	230.31
788.38	230.26
788.71	230.20
789.03	230.14
789.35	230.12
789.67	230.05
789.99	230.02
790.32	229.96
790.64	229.95
790.96	230.01
791.28	229.91
791.61	229.91
791.93	229.85
792.25	229.80
792.57	229.85
792.89	229.78
793.21	229.75
793.54	229.71
793.86	229.69
794.18	229.62
794.50	229.59
794.82	229.52
795.14	229.50
795.47	229.49
795.79	229.47
796.11	229.40
796.43	229.37
796.75	229.34
797.07	229.33
797.39	229.27
797.71	229.17
798.04	229.14
798.36	229.09
798.68	229.08
799.00	229.06
799.32	228.97
799.64	228.98
799.96	228.97
800.28	228.91
800.60	228.86
800.92	228.86
801.24	228.82
801.56	228.81
801.89	228.77
802.21	228.72
802.53	228.66
802.85	228.67
803.17	228.67
803.49	228.62
803.81	228.59
804.13	228.54
804.45	228.49
804.77	228.47
805.09	228.45
805.41	228.39
805.73	228.33
806.05	228.27
806.37	228.21
806.69	228.15
807.01	228.11
807.33	228.08
807.65	227.99
807.97	228.01
808.28	227.95
808.60	227.91
808.92	227.90
809.24	227.94
809.56	227.87
809.88	227.81
810.20	227.79
810.52	227.77
810.84	227.73
811.16	227.67
811.48	227.63
811.80	227.61
812.12	227.58
812.43	227.58
812.75	227.56
813.07	227.52
813.39	227.49
813.71	227.46
814.03	227.43
814.35	227.40
814.67	227.34
814.98	227.33
815.30	227.32
815.62	227.26
815.94	227.13
816.26	227.16
816.58	227.15
816.89	227.12
817.21	227.07
817.53	227.06
817.85	227.06
818.17	227.04
818.48	227.00
818.80	226.96
819.12	226.93
819.44	226.88
819.76	226.87
820.07	226.83
820.39	226.80
820.71	226.80
821.03	226.79
821.34	226.76
821.66	226.72
821.98	226.74
822.30	226.73
822.61	226.78
822.93	226.74
823.25	226.74
823.57	226.72
823.88	226.72
824.20	226.73
824.52	226.73
824.83	226.71
825.15	226.70
825.47	226.72
825.79	226.69
826.10	226.67
826.42	226.65
826.74	226.65
827.05	226.62
827.37	226.60
827.69	226.59
828.00	226.61
828.32	226.62
828.64	226.57
828.95	226.62
829.27	226.56
829.58	226.53
829.90	226.53
830.22	226.53
830.53	226.51
830.85	226.43
831.17	226.40
831.48	226.40
831.80	226.38
832.11	226.37
832.43	226.37
832.75	226.34
833.06	226.37
833.38	226.37
833.69	226.39
834.01	226.39
834.32	226.38
834.64	226.37
834.96	226.36
835.27	226.33
835.59	226.27
835.90	226.24
836.22	226.23
836.53	226.21
836.85	226.21
837.16	226.28
837.48	226.30
837.79	226.32
838.11	226.35
838.42	226.36
838.74	226.35
839.05	226.34
839.37	226.34
839.68	226.30
840.00	226.31
840.31	226.33
840.63	226.30
840.94	226.26
841.26	226.22
841.57	226.24
841.88	226.25
842.20	226.26
842.51	226.26
842.83	226.25
843.14	226.33
843.46	226.31
843.77	226.28
844.08	226.27
844.40	226.23
844.71	226.19
845.03	226.16
845.34	226.17
845.65	226.17
845.97	226.15
846.28	226.14
846.60	226.12
846.91	226.09
847.22	226.09
847.54	226.13
847.85	226.15
848.16	226.10
848.48	226.07
848.79	226.09
849.10	226.08
849.42	226.09
849.73	225.97
850.04	225.95
850.36	225.87
850.67	225.89
850.98	225.87
851.30	225.89
851.61	225.89
851.92	225.90
852.23	225.91
852.55	225.93
852.86	225.95
853.17	225.94
853.49	225.94
853.80	225.96
854.11	225.94
854.42	225.93
854.74	225.93
855.05	225.94
855.36	225.86
855.67	225.88
855.99	225.85
856.30	225.95
856.61	225.98
856.92	226.00
857.23	225.99
857.55	225.96
857.86	225.92
858.17	225.91
858.48	225.89
858.79	225.84
859.11	225.82
859.42	225.80
859.73	225.78
860.04	225.74
860.35	225.70
860.66	225.67
860.98	225.62
861.29	225.62
861.60	225.59
861.91	225.60
862.22	225.58
862.53	225.55
862.84	225.47
863.16	225.46
863.47	225.43
863.78	225.40
864.09	225.40
864.40	225.44
864.71	225.43
865.02	225.41
865.33	225.42
865.64	225.42
865.95	225.42
866.27	225.48
866.58	225.49
866.89	225.50
867.20	225.50
867.51	225.51
867.82	225.51
868.13	225.56
868.44	225.55
868.75	225.54
869.06	225.56
869.37	225.56
869.68	225.52
869.99	225.56
870.30	225.54
870.61	225.57
870.92	225.56
871.23	225.56
871.54	225.59
871.85	225.61
872.16	225.62
872.47	225.60
872.78	225.56
873.09	225.56
873.40	225.58
873.71	225.61
874.02	225.62
874.33	225.61
874.64	225.59
874.95	225.60
875.26	225.59
875.56	225.57
875.87	225.55
876.18	225.56
876.49	225.62
876.80	225.65
877.11	225.65
877.42	225.65
877.73	225.64
878.04	225.64
878.35	225.63
878.66	225.63
878.96	225.64
879.27	225.63
879.58	225.61
879.89	225.59
880.20	225.60
880.51	225.60
880.82	225.62
881.12	225.63
881.43	225.60
881.74	225.59
882.05	225.62
882.36	225.63
882.67	225.60
882.97	225.49
883.28	225.45
883.59	225.45
883.90	225.47
884.21	225.46
884.51	225.45
884.82	225.42
885.13	225.42
885.44	225.45
885.74	225.45
886.05	225.47
886.36	225.48
886.67	225.43
886.98	225.48
887.28	225.47
887.59	225.44
887.90	225.46
888.20	225.46
888.51	225.46
888.82	225.45
889.13	225.44
889.43	225.56
889.74	225.56
890.05	225.51
890.35	225.45
890.66	225.42
890.97	225.37
891.28	225.37
891.58	225.37
891.89	225.33
892.20	225.29
892.50	225.24
892.81	225.22
893.12	225.23
893.42	225.18
893.73	225.18
894.04	225.17
894.34	225.20
894.65	225.17
894.95	225.11
895.26	225.15
895.57	225.24
895.87	225.12
896.18	225.17
896.48	225.19
896.79	225.24
897.10	225.26
897.40	225.28
897.71	225.31
898.01	225.31
898.32	225.34
898.63	225.39
898.93	225.39
899.24	225.37
899.54	225.36
899.85	225.34
900.15	225.34
900.46	225.35
900.76	225.32
901.07	225.34
901.38	225.34
901.68	225.32
901.99	225.24
902.29	225.23
902.60	225.20
902.90	225.18
903.21	225.15
903.51	225.17
903.82	225.20
904.12	225.17
904.43	225.16
904.73	225.11
905.03	225.10
905.34	225.19
905.64	225.18
905.95	225.18
906.25	225.21
906.56	225.17
906.86	225.21
907.17	225.20
907.47	225.21
907.77	225.22
908.08	225.18
908.38	225.22
908.69	225.22
908.99	225.27
909.30	225.31
909.60	225.31
909.90	225.28
910.21	225.28
910.51	225.25
910.81	225.27
911.12	225.30
911.42	225.30
911.73	225.19
912.03	225.21
912.33	225.25
912.64	225.23
912.94	225.24
913.24	225.21
913.55	225.19
913.85	225.20
914.15	225.23
914.46	225.30
914.76	225.25
915.06	225.25
915.37	225.18
915.67	225.18
915.97	225.20
916.27	225.18
916.58	225.16
916.88	225.17
917.18	225.14
917.49	225.19
917.79	225.20
918.09	225.27
918.39	225.29
918.70	225.27
919.00	225.28
919.30	225.31
919.60	225.30
919.91	225.32
920.21	225.31
920.51	225.29
920.81	225.24
921.12	225.27
921.42	225.29
921.72	225.34
922.02	225.32
922.32	225.29
922.63	225.31
922.93	225.36
923.23	225.37
923.53	225.34
923.83	225.25
924.13	225.24
924.44	225.19
924.74	225.18
925.04	225.20
925.34	225.19
925.64	225.17
925.94	225.17
926.24	225.19
926.55	225.17
926.85	225.19
927.15	225.19
927.45	225.18
927.75	225.15
928.05	225.13
928.35	225.11
928.65	225.13
928.95	225.11
929.26	225.07
929.56	225.12
929.86	225.18
930.16	225.19
930.46	225.23
930.76	225.23
931.06	225.18
931.36	225.14
931.66	225.15
931.96	225.13
932.26	225.14
932.56	225.10
932.86	225.10
933.16	225.07
933.46	225.07
933.76	225.05
934.06	225.06
934.36	225.10
934.66	225.13
934.96	225.10
935.26	225.13
935.56	225.13
935.86	225.08
936.16	225.02
936.46	224.98
936.76	224.95
937.06	224.91
937.36	224.91
937.66	224.90
937.96	224.88
938.26	224.85
938.56	224.86
938.86	224.86
939.16	224.89
939.46	224.90
939.76	224.92
940.06	224.88
940.35	224.88
940.65	224.79
940.95	224.81
941.25	224.77
941.55	224.75
941.85	224.75
942.15	224.76
942.45	224.80
942.75	224.85
943.04	224.88
943.34	224.90
943.64	224.90
943.94	224.88
944.24	224.91
944.54	224.95
944.84	224.93
945.13	224.94
945.43	224.94
945.73	224.91
946.03	224.89
946.33	224.94
946.62	224.96
946.92	224.99
947.22	224.92
947.52	224.93
947.82	224.96
948.11	224.95
948.41	224.95
948.71	224.94
949.01	224.95
949.31	224.92
949.60	224.94
949.90	224.97
950.20	225.03
950.50	225.03
950.79	225.01
951.09	225.04
951.39	225.02
951.69	224.98
951.98	225.05
952.28	225.05
952.58	225.05
952.87	225.07
953.17	225.07
953.47	225.09
953.76	225.13
954.06	225.12
954.36	225.12
954.66	225.11
954.95	225.12
955.25	225.11
955.55	225.11
955.84	225.10
956.14	225.11
956.44	225.09
956.73	225.08
957.03	225.08
957.32	225.05
957.62	225.06
957.92	225.08
958.21	225.05
958.51	225.16
958.81	225.18
959.10	225.15
959.40	225.22
959.69	225.25
959.99	225.28
960.29	225.26
960.58	225.24
960.88	225.27
961.17	225.28
961.47	225.29
961.76	225.29
962.06	225.30
962.36	225.29
962.65	225.30
962.95	225.31
963.24	225.32
963.54	225.33
963.83	225.34
964.13	225.34
964.42	225.31
964.72	225.26
965.01	225.26
965.31	225.24
965.60	225.18
965.90	225.23
966.19	225.18
966.49	225.16
966.78	225.17
967.08	225.16
967.37	225.15
967.67	225.13
967.96	225.14
968.26	225.14
968.55	225.14
968.85	225.13
969.14	225.12
969.43	225.08
969.73	225.06
970.02	225.05
970.32	225.03
970.61	225.05
970.91	224.98
971.20	224.96
971.49	224.99
971.79	224.99
972.08	224.93
972.38	224.90
972.67	224.92
972.96	224.93
973.26	224.89
973.55	224.92
973.85	224.91
974.14	224.91
974.43	224.91
974.73	224.88
975.02	224.85
975.31	224.88
975.61	224.89
975.90	224.89
976.19	224.90
976.49	224.90
976.78	224.93
977.07	224.93
977.37	224.89
977.66	224.90
977.95	224.87
978.24	224.86
978.54	224.91
978.83	224.91
979.12	224.90
979.42	224.90
979.71	224.89
980.00	224.87
980.29	224.86
980.59	224.83
980.88	224.87
981.17	224.86
981.46	224.86
981.76	224.86
982.05	224.90
982.34	224.92
982.63	224.93
982.93	224.89
983.22	224.92
983.51	224.95
983.80	224.95
984.09	224.99
984.39	224.99
984.68	224.99
984.97	225.02
985.26	225.02
985.55	225.03
985.85	224.97
986.14	225.01
986.43	225.04
986.72	225.05
987.01	225.01
987.30	225.01
987.59	224.99
987.89	225.00
988.18	224.97
988.47	224.96
988.76	224.97
989.05	224.98
989.34	224.99
989.63	225.01
989.92	224.99
990.22	224.97
990.51	224.99
990.80	224.98
991.09	224.98
991.38	225.00
991.67	225.00
991.96	225.03
992.25	225.07
992.54	225.03
992.83	225.05
993.12	225.08
993.41	225.14
993.70	225.17
993.99	225.20
994.28	225.19
994.58	225.23
994.87	225.21
995.16	225.21
995.45	225.17
995.74	225.18
996.03	225.24
996.32	225.23
996.61	225.25
996.90	225.26
997.19	225.25
997.48	225.25
997.77	225.26
998.06	225.25
998.34	225.21
998.63	225.22
998.92	225.21
999.21	225.21
999.50	225.20
999.79	225.18
1000.08	225.16
1000.37	225.16
1000.66	225.11
1000.95	225.13
1001.24	225.15
1001.53	225.19
1001.82	225.15
1002.11	225.09
1002.40	225.11
1002.68	225.14
1002.97	225.23
1003.26	225.24
1003.55	225.26
1003.84	225.24
1004.13	225.25
1004.42	225.26
1004.71	225.29
1004.99	225.30
1005.28	225.34
1005.57	225.31
1005.86	225.30
1006.15	225.31
1006.44	225.33
1006.72	225.37
1007.01	225.37
1007.30	225.37
1007.59	225.37
1007.88	225.40
1008.17	225.43
1008.45	225.41
1008.74	225.35
1009.03	225.27
1009.32	225.24
1009.60	225.18
1009.89	225.19
1010.18	225.19
1010.47	225.20
1010.76	225.19
1011.04	225.18
1011.33	225.16
1011.62	225.16
1011.91	225.12
1012.19	225.13
1012.48	225.13
1012.77	225.07
1013.05	225.10
1013.34	225.07
1013.63	225.03
1013.92	225.05
1014.20	225.03
1014.49	225.05
1014.78	225.08
1015.06	225.05
1015.35	225.06
1015.64	225.11
1015.92	225.10
1016.21	225.08
1016.50	225.06
1016.78	225.07
1017.07	225.08
1017.36	225.08
1017.64	225.07
1017.93	225.13
1018.22	225.11
1018.50	225.10
1018.79	225.17
1019.08	225.15
1019.36	225.17
1019.65	225.16
1019.93	225.16
1020.22	225.15
1020.51	225.19
1020.79	225.17
1021.08	224.88
1021.36	224.72
1021.65	225.94
1021.94	225.27
1022.22	225.25
1022.51	224.64
1022.79	225.43
1023.08	225.05
1023.36	226.22
1023.65	225.02
>>>>>End Processed Spectral Data<<<<<
