SpectraSuite Data File
++++++++++++++++++++++++++++++++++++
Date: Fri Feb 01 17:02:42 EST 2013
User: group
Dark Spectrum Present: No
Reference Spectrum Present: No
Number of Sampled Component Spectra: 1
Spectrometers: USB2E7196
Integration Time (usec): 35000 (USB2E7196)
Spectra Averaged: 100 (USB2E7196)
Boxcar Smoothing: 10 (USB2E7196)
Correct for Electrical Dark: No (USB2E7196)
Strobe/Lamp Enabled: No (USB2E7196)
Correct for Detector Non-linearity: No (USB2E7196)
Correct for Stray Light: No (USB2E7196)
Number of Pixels in Processed Spectrum: 2048
>>>>>Begin Processed Spectral Data<<<<<
339.09	0.00
339.48	213.70
339.86	214.74
340.24	216.69
340.63	217.80
341.01	220.42
341.39	220.14
341.78	221.14
342.16	223.28
342.54	223.41
342.93	211.89
343.31	222.61
343.69	223.10
344.07	223.57
344.46	223.99
344.84	224.35
345.22	224.59
345.60	224.82
345.99	225.03
346.37	225.14
346.75	225.23
347.13	225.30
347.52	225.35
347.90	225.43
348.28	225.46
348.66	225.50
349.05	225.47
349.43	225.50
349.81	225.54
350.19	225.56
350.57	225.61
350.96	225.72
351.34	225.80
351.72	225.94
352.10	226.01
352.48	226.07
352.87	226.12
353.25	226.19
353.63	226.26
354.01	226.32
354.39	226.38
354.77	226.46
355.15	226.54
355.54	226.60
355.92	226.63
356.30	226.70
356.68	226.82
357.06	226.89
357.44	226.91
357.82	226.99
358.20	227.07
358.58	227.14
358.97	227.19
359.35	227.23
359.73	227.28
360.11	227.37
360.49	227.43
360.87	227.47
361.25	227.51
361.63	227.60
362.01	227.63
362.39	227.65
362.77	227.67
363.15	227.69
363.53	227.72
363.91	227.73
364.29	227.73
364.67	227.65
365.05	227.65
365.43	227.67
365.81	227.67
366.19	227.72
366.57	227.77
366.95	227.77
367.33	227.76
367.71	227.73
368.09	227.73
368.47	227.69
368.85	227.65
369.23	227.68
369.61	227.60
369.99	227.60
370.37	227.60
370.75	227.63
371.13	227.58
371.51	227.55
371.89	227.50
372.27	227.48
372.65	227.47
373.03	227.43
373.41	227.37
373.78	227.36
374.16	227.25
374.54	227.16
374.92	227.09
375.30	227.04
375.68	226.98
376.06	226.91
376.44	226.85
376.82	226.82
377.19	226.74
377.57	226.69
377.95	226.59
378.33	226.57
378.71	226.43
379.09	226.36
379.47	226.33
379.84	226.26
380.22	226.21
380.60	226.11
380.98	226.04
381.36	225.98
381.73	225.85
382.11	225.81
382.49	225.74
382.87	225.65
383.25	225.59
383.62	225.64
384.00	225.54
384.38	225.50
384.76	225.48
385.13	225.48
385.51	225.41
385.89	225.36
386.27	225.30
386.64	225.28
387.02	225.25
387.40	225.17
387.78	225.15
388.15	225.10
388.53	225.06
388.91	225.04
389.29	225.01
389.66	225.02
390.04	225.00
390.42	225.01
390.79	225.00
391.17	225.03
391.55	224.93
391.92	224.96
392.30	224.96
392.68	224.93
393.05	224.91
393.43	224.94
393.81	224.95
394.18	224.95
394.56	224.98
394.94	225.00
395.31	225.04
395.69	225.10
396.06	225.14
396.44	225.21
396.82	225.24
397.19	225.34
397.57	225.35
397.95	225.39
398.32	225.41
398.70	225.49
399.07	225.54
399.45	225.58
399.82	225.63
400.20	225.69
400.58	225.74
400.95	225.77
401.33	225.88
401.70	226.06
402.08	226.13
402.45	226.20
402.83	226.31
403.20	226.40
403.58	226.48
403.95	226.58
404.33	226.66
404.71	226.78
405.08	226.95
405.46	227.07
405.83	227.18
406.21	227.30
406.58	227.45
406.96	227.59
407.33	227.74
407.70	227.93
408.08	228.15
408.45	228.39
408.83	228.61
409.20	228.80
409.58	228.89
409.95	229.16
410.33	229.38
410.70	229.62
411.08	229.90
411.45	230.20
411.82	230.50
412.20	230.87
412.57	231.28
412.95	231.53
413.32	231.93
413.69	232.34
414.07	232.77
414.44	233.23
414.82	233.70
415.19	234.25
415.56	234.78
415.94	235.34
416.31	235.94
416.68	236.55
417.06	237.23
417.43	237.96
417.81	238.69
418.18	239.48
418.55	240.33
418.93	241.20
419.30	242.09
419.67	243.01
420.04	243.96
420.42	244.94
420.79	246.11
421.16	247.29
421.54	248.47
421.91	249.71
422.28	250.97
422.66	252.30
423.03	253.62
423.40	254.92
423.77	256.31
424.15	257.75
424.52	259.23
424.89	260.84
425.26	262.37
425.64	263.86
426.01	265.47
426.38	267.12
426.75	268.77
427.13	270.48
427.50	272.29
427.87	274.16
428.24	276.00
428.61	277.74
428.99	279.65
429.36	281.77
429.73	283.77
430.10	285.78
430.47	287.83
430.85	289.95
431.22	292.21
431.59	294.61
431.96	296.83
432.33	299.34
432.70	301.72
433.08	304.52
433.45	307.12
433.82	309.69
434.19	312.54
434.56	315.36
434.93	318.02
435.30	320.63
435.68	323.49
436.05	326.33
436.42	329.15
436.79	331.63
437.16	334.32
437.53	337.16
437.90	339.95
438.27	342.68
438.64	345.44
439.01	348.03
439.38	350.24
439.75	352.41
440.13	354.87
440.50	357.17
440.87	359.00
441.24	360.92
441.61	363.09
441.98	364.60
442.35	366.33
442.72	368.14
443.09	369.96
443.46	370.92
443.83	371.51
444.20	372.02
444.57	372.88
444.94	373.12
445.31	373.44
445.68	373.83
446.05	373.91
446.42	373.57
446.79	373.17
447.16	372.74
447.53	372.44
447.90	371.31
448.27	370.19
448.64	368.62
449.01	367.53
449.37	365.56
449.74	363.70
450.11	361.51
450.48	359.09
450.85	356.58
451.22	354.49
451.59	352.49
451.96	350.54
452.33	347.95
452.70	345.63
453.07	342.86
453.43	339.97
453.80	337.26
454.17	334.58
454.54	332.02
454.91	329.33
455.28	326.66
455.65	324.13
456.02	321.71
456.38	319.57
456.75	316.95
457.12	314.73
457.49	312.47
457.86	310.30
458.23	308.44
458.59	306.41
458.96	304.29
459.33	302.44
459.70	300.60
460.07	299.11
460.43	297.42
460.80	295.79
461.17	294.33
461.54	292.82
461.91	291.42
462.27	289.99
462.64	288.70
463.01	287.37
463.38	286.11
463.74	284.73
464.11	283.58
464.48	282.53
464.85	281.45
465.21	280.61
465.58	279.70
465.95	278.61
466.32	277.69
466.68	276.81
467.05	275.92
467.42	275.01
467.78	274.12
468.15	273.27
468.52	272.63
468.88	271.78
469.25	270.98
469.62	270.36
469.98	269.70
470.35	269.08
470.72	268.50
471.08	267.85
471.45	267.34
471.82	266.80
472.18	266.25
472.55	265.78
472.92	265.25
473.28	264.78
473.65	264.31
474.02	263.87
474.38	263.55
474.75	263.22
475.11	262.90
475.48	262.61
475.85	262.38
476.21	262.14
476.58	262.01
476.94	261.92
477.31	261.75
477.67	261.62
478.04	261.53
478.41	261.48
478.77	261.53
479.14	261.51
479.50	261.56
479.87	261.61
480.23	261.71
480.60	261.80
480.96	261.94
481.33	262.21
481.69	262.45
482.06	262.69
482.42	262.92
482.79	263.19
483.15	263.50
483.52	263.92
483.88	264.29
484.25	264.68
484.61	265.13
484.98	265.61
485.34	266.18
485.71	266.80
486.07	267.39
486.44	267.99
486.80	268.67
487.17	269.37
487.53	270.19
487.90	271.06
488.26	272.01
488.62	272.99
488.99	273.96
489.35	275.02
489.72	276.14
490.08	277.32
490.44	278.57
490.81	279.92
491.17	281.23
491.54	282.70
491.90	284.23
492.26	285.84
492.63	287.55
492.99	289.31
493.36	291.17
493.72	293.23
494.08	295.28
494.45	297.53
494.81	299.92
495.17	302.35
495.54	304.93
495.90	307.57
496.26	310.34
496.63	313.30
496.99	316.40
497.35	319.59
497.72	323.01
498.08	326.48
498.44	330.14
498.80	334.07
499.17	338.11
499.53	342.24
499.89	346.66
500.26	351.16
500.62	355.81
500.98	360.74
501.34	365.75
501.71	371.11
502.07	376.48
502.43	381.99
502.79	387.79
503.16	393.77
503.52	399.99
503.88	406.37
504.24	412.88
504.60	419.68
504.97	426.79
505.33	434.01
505.69	441.70
506.05	449.41
506.41	457.20
506.78	465.22
507.14	473.58
507.50	482.14
507.86	491.04
508.22	500.15
508.59	509.28
508.95	518.76
509.31	528.43
509.67	538.45
510.03	548.65
510.39	559.03
510.75	569.71
511.12	580.54
511.48	591.69
511.84	603.07
512.20	614.48
512.56	626.15
512.92	638.18
513.28	650.36
513.64	662.70
514.00	675.23
514.37	688.01
514.73	700.89
515.09	713.74
515.45	726.81
515.81	740.21
516.17	753.96
516.53	767.88
516.89	781.85
517.25	795.77
517.61	809.97
517.97	824.21
518.33	838.44
518.69	852.91
519.05	867.64
519.41	882.50
519.77	897.65
520.13	912.91
520.49	928.02
520.85	943.09
521.21	958.44
521.57	974.38
521.93	989.85
522.29	1005.86
522.65	1021.78
523.01	1037.63
523.37	1053.44
523.73	1069.30
524.09	1085.09
524.45	1101.04
524.81	1117.33
525.17	1133.73
525.53	1150.22
525.89	1166.67
526.25	1183.22
526.61	1199.30
526.97	1215.68
527.33	1231.96
527.68	1248.20
528.04	1264.24
528.40	1280.46
528.76	1297.21
529.12	1313.41
529.48	1329.95
529.84	1345.68
530.20	1361.94
530.56	1378.66
530.91	1395.57
531.27	1411.87
531.63	1427.90
531.99	1444.11
532.35	1459.62
532.71	1475.32
533.07	1491.30
533.42	1506.86
533.78	1522.66
534.14	1538.54
534.50	1553.69
534.86	1569.18
535.21	1584.13
535.57	1599.75
535.93	1614.96
536.29	1629.38
536.65	1644.05
537.00	1658.48
537.36	1673.58
537.72	1687.81
538.08	1701.94
538.44	1715.35
538.79	1729.00
539.15	1742.39
539.51	1755.87
539.87	1770.10
540.22	1783.37
540.58	1796.71
540.94	1809.71
541.29	1822.11
541.65	1834.42
542.01	1847.06
542.37	1858.99
542.72	1870.92
543.08	1882.52
543.44	1894.59
543.79	1905.69
544.15	1916.49
544.51	1927.80
544.87	1938.49
545.22	1949.18
545.58	1959.20
545.94	1968.91
546.29	1978.42
546.65	1988.12
547.01	1997.17
547.36	2005.68
547.72	2014.14
548.07	2022.05
548.43	2030.13
548.79	2038.00
549.14	2045.64
549.50	2053.02
549.86	2060.59
550.21	2067.95
550.57	2075.07
550.92	2081.58
551.28	2088.43
551.64	2095.50
551.99	2101.98
552.35	2108.03
552.70	2114.10
553.06	2120.04
553.41	2126.21
553.77	2132.29
554.13	2138.27
554.48	2144.39
554.84	2149.91
555.19	2155.01
555.55	2160.14
555.90	2164.68
556.26	2169.72
556.61	2174.33
556.97	2178.78
557.32	2183.02
557.68	2187.16
558.03	2191.38
558.39	2195.12
558.74	2199.73
559.10	2203.56
559.45	2207.18
559.81	2211.48
560.16	2215.24
560.52	2218.54
560.87	2222.07
561.23	2224.89
561.58	2227.82
561.94	2230.43
562.29	2232.75
562.64	2235.65
563.00	2238.10
563.35	2241.54
563.71	2244.68
564.06	2248.01
564.42	2250.86
564.77	2253.52
565.12	2255.99
565.48	2258.16
565.83	2260.15
566.19	2261.72
566.54	2262.60
566.89	2264.06
567.25	2264.92
567.60	2266.45
567.96	2268.39
568.31	2269.43
568.66	2270.77
569.02	2271.44
569.37	2272.02
569.72	2273.09
570.08	2273.43
570.43	2273.83
570.78	2273.60
571.14	2272.22
571.49	2271.07
571.84	2270.89
572.20	2270.04
572.55	2269.18
572.90	2267.68
573.26	2266.51
573.61	2264.90
573.96	2263.72
574.31	2260.94
574.67	2257.98
575.02	2254.62
575.37	2251.26
575.72	2247.75
576.08	2244.43
576.43	2241.51
576.78	2238.09
577.13	2234.98
577.49	2232.00
577.84	2228.73
578.19	2225.21
578.54	2221.90
578.90	2218.06
579.25	2212.74
579.60	2207.97
579.95	2203.19
580.30	2198.54
580.66	2193.55
581.01	2188.90
581.36	2183.98
581.71	2180.00
582.06	2176.00
582.42	2171.72
582.77	2166.88
583.12	2162.60
583.47	2158.33
583.82	2153.66
584.17	2148.50
584.53	2143.31
584.88	2137.89
585.23	2132.43
585.58	2127.11
585.93	2121.74
586.28	2117.01
586.63	2112.23
586.98	2107.46
587.34	2102.94
587.69	2098.10
588.04	2093.19
588.39	2087.75
588.74	2081.54
589.09	2075.59
589.44	2068.89
589.79	2062.87
590.14	2057.32
590.49	2050.63
590.84	2044.21
591.19	2038.23
591.54	2032.04
591.89	2025.13
592.25	2018.70
592.60	2011.62
592.95	2004.34
593.30	1997.30
593.65	1989.83
594.00	1982.87
594.35	1975.72
594.70	1967.70
595.05	1960.84
595.40	1953.60
595.75	1946.24
596.10	1940.32
596.45	1933.79
596.80	1927.83
597.15	1921.52
597.50	1914.67
597.85	1908.43
598.19	1902.13
598.54	1895.40
598.89	1888.79
599.24	1882.92
599.59	1876.48
599.94	1870.28
600.29	1864.08
600.64	1857.62
600.99	1850.42
601.34	1843.89
601.69	1836.90
602.04	1830.32
602.39	1823.05
602.74	1816.41
603.08	1809.80
603.43	1803.05
603.78	1795.74
604.13	1788.67
604.48	1781.55
604.83	1774.71
605.18	1768.16
605.53	1760.27
605.87	1752.22
606.22	1745.28
606.57	1737.38
606.92	1730.01
607.27	1723.15
607.62	1716.27
607.96	1709.09
608.31	1702.77
608.66	1695.18
609.01	1687.91
609.36	1680.45
609.70	1672.42
610.05	1664.59
610.40	1656.95
610.75	1648.78
611.10	1641.41
611.44	1632.94
611.79	1625.05
612.14	1616.58
612.49	1607.41
612.83	1599.01
613.18	1590.89
613.53	1582.66
613.88	1574.13
614.22	1565.83
614.57	1557.11
614.92	1549.19
615.27	1541.72
615.61	1533.27
615.96	1525.33
616.31	1517.64
616.65	1510.32
617.00	1502.89
617.35	1495.15
617.70	1487.04
618.04	1478.64
618.39	1470.31
618.74	1462.85
619.08	1454.51
619.43	1446.89
619.78	1439.89
620.12	1432.83
620.47	1425.46
620.82	1417.34
621.16	1410.01
621.51	1402.42
621.85	1394.82
622.20	1386.33
622.55	1377.92
622.89	1370.13
623.24	1362.42
623.59	1355.07
623.93	1347.60
624.28	1340.31
624.62	1332.94
624.97	1325.75
625.32	1318.96
625.66	1311.99
626.01	1304.88
626.35	1297.60
626.70	1289.91
627.04	1282.30
627.39	1274.60
627.73	1267.17
628.08	1260.37
628.43	1253.15
628.77	1245.92
629.12	1238.54
629.46	1231.50
629.81	1224.17
630.15	1216.92
630.50	1209.70
630.84	1201.51
631.19	1193.57
631.53	1186.08
631.88	1178.45
632.22	1170.77
632.57	1163.38
632.91	1155.86
633.26	1148.44
633.60	1140.97
633.95	1133.76
634.29	1126.74
634.64	1119.93
634.98	1112.64
635.32	1105.51
635.67	1098.92
636.01	1092.26
636.36	1085.48
636.70	1078.82
637.05	1072.33
637.39	1065.91
637.73	1059.42
638.08	1053.59
638.42	1047.62
638.77	1041.33
639.11	1034.84
639.45	1028.52
639.80	1021.96
640.14	1015.64
640.49	1009.19
640.83	1002.94
641.17	996.76
641.52	990.42
641.86	983.94
642.20	978.12
642.55	971.77
642.89	965.35
643.23	958.80
643.58	952.98
643.92	946.87
644.26	940.87
644.61	934.77
644.95	928.79
645.29	922.27
645.64	915.66
645.98	909.30
646.32	903.41
646.66	897.34
647.01	891.64
647.35	885.96
647.69	880.04
648.04	874.53
648.38	868.75
648.72	862.85
649.06	857.03
649.41	851.10
649.75	845.22
650.09	839.37
650.43	833.62
650.78	827.48
651.12	821.48
651.46	815.74
651.80	810.22
652.14	804.75
652.49	799.34
652.83	794.10
653.17	788.40
653.51	782.72
653.85	777.36
654.20	771.73
654.54	765.71
654.88	760.00
655.22	754.15
655.56	748.54
655.90	743.07
656.25	737.77
656.59	732.49
656.93	727.45
657.27	722.21
657.61	716.84
657.95	711.81
658.29	706.75
658.64	701.48
658.98	696.04
659.32	690.63
659.66	685.45
660.00	680.25
660.34	675.35
660.68	670.46
661.02	665.53
661.36	660.82
661.70	656.34
662.05	652.07
662.39	647.76
662.73	643.33
663.07	638.94
663.41	634.60
663.75	630.11
664.09	625.54
664.43	621.18
664.77	617.08
665.11	612.85
665.45	608.83
665.79	604.78
666.13	600.71
666.47	596.65
666.81	592.58
667.15	588.40
667.49	584.52
667.83	580.68
668.17	576.70
668.51	572.70
668.85	568.68
669.19	564.79
669.53	561.01
669.87	557.15
670.21	553.47
670.55	549.77
670.89	546.31
671.23	542.92
671.57	539.41
671.91	535.90
672.25	532.42
672.58	528.86
672.92	525.47
673.26	522.27
673.60	519.11
673.94	515.96
674.28	513.03
674.62	510.10
674.96	507.01
675.30	504.13
675.64	501.20
675.97	498.41
676.31	495.60
676.65	492.67
676.99	490.01
677.33	487.18
677.67	484.34
678.01	481.37
678.34	478.43
678.68	475.57
679.02	472.80
679.36	470.01
679.70	467.33
680.04	464.57
680.37	461.74
680.71	458.93
681.05	456.31
681.39	453.62
681.73	450.90
682.06	448.41
682.40	445.90
682.74	443.34
683.08	440.79
683.42	438.12
683.75	435.62
684.09	433.08
684.43	430.64
684.77	428.16
685.10	425.82
685.44	423.49
685.78	421.18
686.12	418.91
686.45	416.67
686.79	414.36
687.13	412.18
687.46	410.07
687.80	407.94
688.14	405.78
688.48	403.78
688.81	401.64
689.15	399.49
689.49	397.32
689.82	395.26
690.16	393.15
690.50	391.26
690.83	389.31
691.17	387.26
691.51	385.38
691.84	383.54
692.18	381.60
692.52	379.64
692.85	377.72
693.19	375.78
693.52	373.94
693.86	372.15
694.20	370.37
694.53	368.56
694.87	366.72
695.21	364.88
695.54	363.00
695.88	361.24
696.21	359.51
696.55	357.83
696.88	356.14
697.22	354.49
697.56	352.86
697.89	351.23
698.23	349.66
698.56	348.00
698.90	346.48
699.23	344.88
699.57	343.32
699.90	341.79
700.24	340.27
700.58	338.73
700.91	337.20
701.25	335.75
701.58	334.39
701.92	333.02
702.25	331.67
702.59	330.35
702.92	329.04
703.26	327.76
703.59	326.48
703.93	325.31
704.26	324.11
704.60	322.86
704.93	321.59
705.26	320.33
705.60	319.19
705.93	318.00
706.27	316.95
706.60	315.90
706.94	314.84
707.27	313.71
707.61	312.64
707.94	311.59
708.27	310.50
708.61	309.39
708.94	308.38
709.28	307.42
709.61	306.44
709.94	305.47
710.28	304.45
710.61	303.48
710.95	302.43
711.28	301.51
711.61	300.54
711.95	299.59
712.28	298.68
712.61	297.70
712.95	296.75
713.28	295.83
713.61	294.92
713.95	294.02
714.28	293.21
714.61	292.33
714.95	291.50
715.28	290.64
715.61	289.75
715.95	288.90
716.28	288.04
716.61	287.22
716.95	286.39
717.28	285.63
717.61	284.86
717.94	284.08
718.28	283.28
718.61	282.53
718.94	281.85
719.27	281.15
719.61	280.50
719.94	279.86
720.27	279.15
720.60	278.50
720.94	277.87
721.27	277.23
721.60	276.65
721.93	276.06
722.27	275.50
722.60	274.97
722.93	274.42
723.26	273.83
723.59	273.24
723.93	272.71
724.26	272.12
724.59	271.54
724.92	271.00
725.25	270.47
725.59	269.96
725.92	269.44
726.25	268.94
726.58	268.42
726.91	267.90
727.24	267.44
727.57	266.95
727.91	266.41
728.24	265.94
728.57	265.48
728.90	265.00
729.23	264.54
729.56	264.13
729.89	263.66
730.22	263.16
730.55	262.69
730.89	262.22
731.22	261.79
731.55	261.36
731.88	260.94
732.21	260.53
732.54	260.08
732.87	259.65
733.20	259.22
733.53	258.81
733.86	258.45
734.19	258.05
734.52	257.68
734.85	257.37
735.18	256.95
735.51	256.61
735.84	256.27
736.17	255.91
736.50	255.47
736.83	255.25
737.16	254.96
737.49	254.63
737.82	254.28
738.15	253.96
738.48	253.62
738.81	253.30
739.14	252.99
739.47	252.69
739.80	252.36
740.13	252.07
740.46	251.78
740.79	251.45
741.12	251.17
741.45	250.87
741.78	250.56
742.11	250.32
742.44	249.97
742.77	249.65
743.10	249.35
743.43	249.07
743.75	248.66
744.08	248.50
744.41	248.23
744.74	247.97
745.07	247.72
745.40	247.50
745.73	247.28
746.06	246.99
746.39	246.74
746.71	246.48
747.04	246.24
747.37	245.99
747.70	245.73
748.03	245.45
748.36	245.21
748.68	244.96
749.01	244.67
749.34	244.46
749.67	244.25
750.00	244.05
750.33	243.88
750.65	243.67
750.98	243.33
751.31	243.10
751.64	242.90
751.97	242.72
752.29	242.49
752.62	242.22
752.95	242.00
753.28	241.77
753.60	241.58
753.93	241.39
754.26	241.18
754.59	240.97
754.91	240.74
755.24	240.55
755.57	240.35
755.90	240.17
756.22	239.95
756.55	239.76
756.88	239.54
757.20	239.30
757.53	239.11
757.86	238.92
758.19	238.78
758.51	238.61
758.84	238.37
759.17	238.20
759.49	238.07
759.82	237.95
760.15	237.81
760.47	237.66
760.80	237.49
761.13	237.34
761.45	237.21
761.78	237.09
762.11	236.96
762.43	236.78
762.76	236.66
763.08	236.54
763.41	236.37
763.74	236.26
764.06	236.11
764.39	235.96
764.71	235.83
765.04	235.68
765.37	235.54
765.69	235.44
766.02	235.28
766.34	235.12
766.67	234.94
767.00	234.85
767.32	234.79
767.65	234.74
767.97	234.65
768.30	234.53
768.62	234.42
768.95	234.27
769.27	234.19
769.60	234.05
769.92	233.95
770.25	233.84
770.57	233.69
770.90	233.58
771.22	233.44
771.55	233.35
771.87	233.25
772.20	233.14
772.52	233.11
772.85	233.18
773.17	233.10
773.50	233.03
773.82	232.89
774.15	232.74
774.47	232.58
774.80	232.49
775.12	232.38
775.45	232.28
775.77	232.22
776.09	232.12
776.42	232.03
776.74	231.97
777.07	231.90
777.39	231.84
777.72	231.80
778.04	231.77
778.36	231.70
778.69	231.66
779.01	231.60
779.33	231.45
779.66	231.25
779.98	231.18
780.31	231.15
780.63	231.15
780.95	231.09
781.28	231.02
781.60	230.96
781.92	230.93
782.25	230.86
782.57	230.85
782.89	230.82
783.22	230.79
783.54	230.74
783.86	230.70
784.19	230.64
784.51	230.60
784.83	230.54
785.16	230.49
785.48	230.41
785.80	230.40
786.12	230.37
786.45	230.36
786.77	230.33
787.09	230.26
787.42	230.16
787.74	230.13
788.06	230.13
788.38	230.07
788.71	230.01
789.03	230.00
789.35	229.96
789.67	229.90
789.99	229.83
790.32	229.78
790.64	229.74
790.96	229.82
791.28	229.76
791.61	229.70
791.93	229.70
792.25	229.64
792.57	229.66
792.89	229.60
793.21	229.52
793.54	229.47
793.86	229.41
794.18	229.40
794.50	229.34
794.82	229.31
795.14	229.29
795.47	229.27
795.79	229.22
796.11	229.15
796.43	229.11
796.75	229.11
797.07	229.06
797.39	229.05
797.71	228.90
798.04	228.86
798.36	228.85
798.68	228.78
799.00	228.75
799.32	228.66
799.64	228.66
799.96	228.63
800.28	228.64
800.60	228.62
800.92	228.54
801.24	228.51
801.56	228.44
801.89	228.41
802.21	228.36
802.53	228.32
802.85	228.30
803.17	228.32
803.49	228.22
803.81	228.19
804.13	228.12
804.45	228.11
804.77	228.12
805.09	228.10
805.41	228.05
805.73	228.02
806.05	227.94
806.37	227.90
806.69	227.88
807.01	227.81
807.33	227.79
807.65	227.76
807.97	227.76
808.28	227.74
808.60	227.70
808.92	227.66
809.24	227.72
809.56	227.64
809.88	227.59
810.20	227.60
810.52	227.59
810.84	227.55
811.16	227.53
811.48	227.44
811.80	227.40
812.12	227.39
812.43	227.39
812.75	227.39
813.07	227.33
813.39	227.30
813.71	227.27
814.03	227.23
814.35	227.26
814.67	227.21
814.98	227.19
815.30	227.16
815.62	227.15
815.94	227.04
816.26	227.10
816.58	227.06
816.89	227.06
817.21	227.04
817.53	227.03
817.85	227.03
818.17	227.01
818.48	226.97
818.80	226.98
819.12	226.97
819.44	226.94
819.76	226.95
820.07	226.94
820.39	226.94
820.71	226.91
821.03	226.88
821.34	226.83
821.66	226.82
821.98	226.83
822.30	226.82
822.61	226.90
822.93	226.81
823.25	226.81
823.57	226.78
823.88	226.76
824.20	226.76
824.52	226.74
824.83	226.76
825.15	226.74
825.47	226.72
825.79	226.70
826.10	226.73
826.42	226.72
826.74	226.73
827.05	226.71
827.37	226.73
827.69	226.72
828.00	226.75
828.32	226.75
828.64	226.72
828.95	226.77
829.27	226.70
829.58	226.71
829.90	226.72
830.22	226.74
830.53	226.76
830.85	226.75
831.17	226.74
831.48	226.71
831.80	226.73
832.11	226.71
832.43	226.67
832.75	226.62
833.06	226.65
833.38	226.60
833.69	226.54
834.01	226.52
834.32	226.49
834.64	226.48
834.96	226.47
835.27	226.44
835.59	226.40
835.90	226.38
836.22	226.36
836.53	226.30
836.85	226.27
837.16	226.32
837.48	226.28
837.79	226.26
838.11	226.25
838.42	226.24
838.74	226.24
839.05	226.27
839.37	226.28
839.68	226.21
840.00	226.21
840.31	226.25
840.63	226.24
840.94	226.23
841.26	226.17
841.57	226.15
841.88	226.14
842.20	226.10
842.51	226.08
842.83	226.07
843.14	226.17
843.46	226.15
843.77	226.08
844.08	226.10
844.40	226.10
844.71	226.08
845.03	226.03
845.34	226.00
845.65	225.97
845.97	225.93
846.28	225.92
846.60	225.89
846.91	225.86
847.22	225.84
847.54	225.85
847.85	225.87
848.16	225.82
848.48	225.81
848.79	225.86
849.10	225.82
849.42	225.80
849.73	225.72
850.04	225.71
850.36	225.66
850.67	225.65
850.98	225.62
851.30	225.62
851.61	225.61
851.92	225.61
852.23	225.65
852.55	225.63
852.86	225.64
853.17	225.67
853.49	225.71
853.80	225.73
854.11	225.74
854.42	225.74
854.74	225.78
855.05	225.81
855.36	225.73
855.67	225.73
855.99	225.75
856.30	225.86
856.61	225.85
856.92	225.86
857.23	225.86
857.55	225.88
857.86	225.87
858.17	225.89
858.48	225.89
858.79	225.86
859.11	225.89
859.42	225.90
859.73	225.90
860.04	225.88
860.35	225.86
860.66	225.84
860.98	225.84
861.29	225.84
861.60	225.82
861.91	225.87
862.22	225.90
862.53	225.89
862.84	225.77
863.16	225.79
863.47	225.82
863.78	225.84
864.09	225.85
864.40	225.91
864.71	225.92
865.02	225.95
865.33	225.93
865.64	225.91
865.95	225.87
866.27	225.93
866.58	225.95
866.89	225.98
867.20	225.99
867.51	226.00
867.82	226.01
868.13	226.05
868.44	226.03
868.75	226.03
869.06	226.03
869.37	226.02
869.68	225.99
869.99	226.00
870.30	225.99
870.61	225.98
870.92	225.95
871.23	225.92
871.54	225.92
871.85	225.93
872.16	225.95
872.47	225.99
872.78	225.89
873.09	225.85
873.40	225.82
873.71	225.83
874.02	225.80
874.33	225.75
874.64	225.74
874.95	225.73
875.26	225.71
875.56	225.69
875.87	225.71
876.18	225.71
876.49	225.80
876.80	225.80
877.11	225.78
877.42	225.77
877.73	225.79
878.04	225.77
878.35	225.79
878.66	225.77
878.96	225.76
879.27	225.77
879.58	225.80
879.89	225.77
880.20	225.77
880.51	225.76
880.82	225.75
881.12	225.74
881.43	225.72
881.74	225.67
882.05	225.68
882.36	225.67
882.67	225.66
882.97	225.55
883.28	225.52
883.59	225.49
883.90	225.50
884.21	225.51
884.51	225.50
884.82	225.46
885.13	225.48
885.44	225.46
885.74	225.49
886.05	225.46
886.36	225.44
886.67	225.43
886.98	225.47
887.28	225.46
887.59	225.47
887.90	225.47
888.20	225.46
888.51	225.46
888.82	225.42
889.13	225.45
889.43	225.50
889.74	225.50
890.05	225.50
890.35	225.46
890.66	225.41
890.97	225.40
891.28	225.40
891.58	225.38
891.89	225.36
892.20	225.33
892.50	225.29
892.81	225.32
893.12	225.33
893.42	225.30
893.73	225.31
894.04	225.31
894.34	225.34
894.65	225.38
894.95	225.39
895.26	225.44
895.57	225.47
895.87	225.41
896.18	225.45
896.48	225.45
896.79	225.46
897.10	225.52
897.40	225.53
897.71	225.57
898.01	225.57
898.32	225.59
898.63	225.62
898.93	225.67
899.24	225.68
899.54	225.64
899.85	225.66
900.15	225.69
900.46	225.67
900.76	225.70
901.07	225.70
901.38	225.68
901.68	225.71
901.99	225.62
902.29	225.63
902.60	225.59
902.90	225.59
903.21	225.59
903.51	225.56
903.82	225.60
904.12	225.58
904.43	225.66
904.73	225.64
905.03	225.61
905.34	225.72
905.64	225.71
905.95	225.73
906.25	225.70
906.56	225.68
906.86	225.68
907.17	225.65
907.47	225.66
907.77	225.67
908.08	225.64
908.38	225.67
908.69	225.66
908.99	225.72
909.30	225.72
909.60	225.72
909.90	225.71
910.21	225.64
910.51	225.60
910.81	225.54
911.12	225.56
911.42	225.57
911.73	225.44
912.03	225.46
912.33	225.47
912.64	225.52
912.94	225.52
913.24	225.50
913.55	225.47
913.85	225.46
914.15	225.46
914.46	225.44
914.76	225.42
915.06	225.41
915.37	225.37
915.67	225.37
915.97	225.38
916.27	225.36
916.58	225.36
916.88	225.38
917.18	225.38
917.49	225.42
917.79	225.40
918.09	225.44
918.39	225.43
918.70	225.42
919.00	225.37
919.30	225.41
919.60	225.42
919.91	225.42
920.21	225.43
920.51	225.39
920.81	225.41
921.12	225.45
921.42	225.46
921.72	225.43
922.02	225.49
922.32	225.49
922.63	225.49
922.93	225.55
923.23	225.58
923.53	225.56
923.83	225.48
924.13	225.50
924.44	225.50
924.74	225.53
925.04	225.54
925.34	225.54
925.64	225.49
925.94	225.46
926.24	225.52
926.55	225.50
926.85	225.55
927.15	225.53
927.45	225.51
927.75	225.48
928.05	225.49
928.35	225.44
928.65	225.45
928.95	225.47
929.26	225.46
929.56	225.43
929.86	225.44
930.16	225.48
930.46	225.45
930.76	225.42
931.06	225.36
931.36	225.33
931.66	225.38
931.96	225.41
932.26	225.44
932.56	225.39
932.86	225.39
933.16	225.36
933.46	225.34
933.76	225.34
934.06	225.36
934.36	225.41
934.66	225.41
934.96	225.39
935.26	225.37
935.56	225.39
935.86	225.42
936.16	225.42
936.46	225.40
936.76	225.40
937.06	225.39
937.36	225.41
937.66	225.42
937.96	225.39
938.26	225.39
938.56	225.40
938.86	225.41
939.16	225.46
939.46	225.48
939.76	225.48
940.06	225.48
940.35	225.50
940.65	225.46
940.95	225.48
941.25	225.48
941.55	225.47
941.85	225.44
942.15	225.42
942.45	225.45
942.75	225.45
943.04	225.51
943.34	225.56
943.64	225.55
943.94	225.55
944.24	225.58
944.54	225.55
944.84	225.56
945.13	225.55
945.43	225.54
945.73	225.55
946.03	225.58
946.33	225.59
946.62	225.56
946.92	225.53
947.22	225.52
947.52	225.53
947.82	225.56
948.11	225.54
948.41	225.52
948.71	225.52
949.01	225.54
949.31	225.48
949.60	225.46
949.90	225.46
950.20	225.46
950.50	225.43
950.79	225.45
951.09	225.43
951.39	225.40
951.69	225.39
951.98	225.40
952.28	225.39
952.58	225.38
952.87	225.37
953.17	225.40
953.47	225.37
953.76	225.37
954.06	225.35
954.36	225.32
954.66	225.32
954.95	225.31
955.25	225.29
955.55	225.33
955.84	225.30
956.14	225.32
956.44	225.32
956.73	225.33
957.03	225.32
957.32	225.32
957.62	225.31
957.92	225.29
958.21	225.26
958.51	225.36
958.81	225.37
959.10	225.38
959.40	225.38
959.69	225.41
959.99	225.39
960.29	225.40
960.58	225.42
960.88	225.46
961.17	225.42
961.47	225.44
961.76	225.41
962.06	225.42
962.36	225.41
962.65	225.41
962.95	225.38
963.24	225.37
963.54	225.36
963.83	225.40
964.13	225.38
964.42	225.36
964.72	225.27
965.01	225.23
965.31	225.23
965.60	225.21
965.90	225.28
966.19	225.28
966.49	225.29
966.78	225.30
967.08	225.27
967.37	225.28
967.67	225.26
967.96	225.25
968.26	225.24
968.55	225.22
968.85	225.21
969.14	225.20
969.43	225.19
969.73	225.16
970.02	225.14
970.32	225.14
970.61	225.17
970.91	225.17
971.20	225.16
971.49	225.15
971.79	225.16
972.08	225.06
972.38	225.05
972.67	225.04
972.96	225.06
973.26	225.03
973.55	225.08
973.85	225.08
974.14	225.08
974.43	225.09
974.73	225.09
975.02	225.12
975.31	225.15
975.61	225.14
975.90	225.13
976.19	225.08
976.49	225.10
976.78	225.11
977.07	225.09
977.37	225.11
977.66	225.14
977.95	225.15
978.24	225.17
978.54	225.16
978.83	225.15
979.12	225.11
979.42	225.13
979.71	225.08
980.00	225.08
980.29	225.13
980.59	225.13
980.88	225.15
981.17	225.14
981.46	225.15
981.76	225.21
982.05	225.27
982.34	225.32
982.63	225.33
982.93	225.34
983.22	225.35
983.51	225.38
983.80	225.38
984.09	225.40
984.39	225.42
984.68	225.44
984.97	225.43
985.26	225.47
985.55	225.45
985.85	225.46
986.14	225.48
986.43	225.48
986.72	225.44
987.01	225.43
987.30	225.39
987.59	225.37
987.89	225.37
988.18	225.34
988.47	225.37
988.76	225.36
989.05	225.33
989.34	225.33
989.63	225.31
989.92	225.32
990.22	225.29
990.51	225.29
990.80	225.26
991.09	225.31
991.38	225.34
991.67	225.37
991.96	225.33
992.25	225.31
992.54	225.27
992.83	225.28
993.12	225.26
993.41	225.28
993.70	225.32
993.99	225.31
994.28	225.32
994.58	225.29
994.87	225.27
995.16	225.25
995.45	225.23
995.74	225.22
996.03	225.18
996.32	225.19
996.61	225.20
996.90	225.21
997.19	225.16
997.48	225.13
997.77	225.11
998.06	225.14
998.34	225.15
998.63	225.16
998.92	225.18
999.21	225.21
999.50	225.20
999.79	225.17
1000.08	225.14
1000.37	225.12
1000.66	225.11
1000.95	225.13
1001.24	225.15
1001.53	225.17
1001.82	225.16
1002.11	225.15
1002.40	225.14
1002.68	225.12
1002.97	225.23
1003.26	225.21
1003.55	225.20
1003.84	225.19
1004.13	225.24
1004.42	225.22
1004.71	225.19
1004.99	225.19
1005.28	225.23
1005.57	225.23
1005.86	225.23
1006.15	225.23
1006.44	225.24
1006.72	225.23
1007.01	225.22
1007.30	225.21
1007.59	225.20
1007.88	225.23
1008.17	225.23
1008.45	225.22
1008.74	225.21
1009.03	225.12
1009.32	225.14
1009.60	225.14
1009.89	225.10
1010.18	225.02
1010.47	225.03
1010.76	225.04
1011.04	225.06
1011.33	225.01
1011.62	225.00
1011.91	225.01
1012.19	225.03
1012.48	225.02
1012.77	225.02
1013.05	225.07
1013.34	225.12
1013.63	225.11
1013.92	225.11
1014.20	225.14
1014.49	225.14
1014.78	225.13
1015.06	225.12
1015.35	225.15
1015.64	225.16
1015.92	225.22
1016.21	225.25
1016.50	225.24
1016.78	225.24
1017.07	225.23
1017.36	225.20
1017.64	225.23
1017.93	225.24
1018.22	225.25
1018.50	225.25
1018.79	225.24
1019.08	225.19
1019.36	225.15
1019.65	225.14
1019.93	225.18
1020.22	225.19
1020.51	225.25
1020.79	225.27
1021.08	225.42
1021.36	225.09
1021.65	224.95
1021.94	224.92
1022.22	224.76
1022.51	225.05
1022.79	225.97
1023.08	225.51
1023.36	226.55
1023.65	225.14
>>>>>End Processed Spectral Data<<<<<
