SpectraSuite Data File
++++++++++++++++++++++++++++++++++++
Date: Fri Feb 01 17:07:24 EST 2013
User: group
Dark Spectrum Present: No
Reference Spectrum Present: No
Number of Sampled Component Spectra: 1
Spectrometers: USB2E7196
Integration Time (usec): 35000 (USB2E7196)
Spectra Averaged: 100 (USB2E7196)
Boxcar Smoothing: 10 (USB2E7196)
Correct for Electrical Dark: No (USB2E7196)
Strobe/Lamp Enabled: No (USB2E7196)
Correct for Detector Non-linearity: No (USB2E7196)
Correct for Stray Light: No (USB2E7196)
Number of Pixels in Processed Spectrum: 2048
>>>>>Begin Processed Spectral Data<<<<<
339.09	0.00
339.48	213.37
339.86	215.33
340.24	216.63
340.63	217.52
341.01	220.23
341.39	220.56
341.78	221.84
342.16	223.58
342.54	224.16
342.93	211.83
343.31	222.54
343.69	223.08
344.07	223.53
344.46	223.95
344.84	224.32
345.22	224.56
345.60	224.79
345.99	224.95
346.37	225.00
346.75	225.05
347.13	225.12
347.52	225.13
347.90	225.20
348.28	225.20
348.66	225.25
349.05	225.24
349.43	225.27
349.81	225.28
350.19	225.33
350.57	225.36
350.96	225.45
351.34	225.50
351.72	225.55
352.10	225.63
352.48	225.65
352.87	225.67
353.25	225.70
353.63	225.73
354.01	225.78
354.39	225.87
354.77	225.94
355.15	225.99
355.54	226.07
355.92	226.10
356.30	226.20
356.68	226.32
357.06	226.35
357.44	226.39
357.82	226.44
358.20	226.50
358.58	226.55
358.97	226.64
359.35	226.75
359.73	226.85
360.11	226.87
360.49	226.97
360.87	227.03
361.25	227.14
361.63	227.22
362.01	227.29
362.39	227.36
362.77	227.44
363.15	227.52
363.53	227.55
363.91	227.61
364.29	227.66
364.67	227.59
365.05	227.66
365.43	227.66
365.81	227.70
366.19	227.77
366.57	227.84
366.95	227.83
367.33	227.75
367.71	227.75
368.09	227.80
368.47	227.80
368.85	227.82
369.23	227.80
369.61	227.77
369.99	227.78
370.37	227.76
370.75	227.75
371.13	227.72
371.51	227.69
371.89	227.65
372.27	227.59
372.65	227.58
373.03	227.53
373.41	227.53
373.78	227.47
374.16	227.38
374.54	227.29
374.92	227.25
375.30	227.23
375.68	227.13
376.06	227.11
376.44	227.04
376.82	227.00
377.19	226.96
377.57	226.93
377.95	226.84
378.33	226.77
378.71	226.67
379.09	226.59
379.47	226.55
379.84	226.46
380.22	226.41
380.60	226.34
380.98	226.28
381.36	226.23
381.73	226.14
382.11	226.08
382.49	226.05
382.87	225.97
383.25	225.92
383.62	225.99
384.00	225.88
384.38	225.81
384.76	225.79
385.13	225.76
385.51	225.67
385.89	225.59
386.27	225.52
386.64	225.49
387.02	225.45
387.40	225.37
387.78	225.35
388.15	225.33
388.53	225.26
388.91	225.23
389.29	225.17
389.66	225.18
390.04	225.14
390.42	225.08
390.79	225.04
391.17	225.01
391.55	224.89
391.92	224.87
392.30	224.87
392.68	224.82
393.05	224.82
393.43	224.83
393.81	224.86
394.18	224.88
394.56	224.86
394.94	224.89
395.31	224.91
395.69	224.94
396.06	224.95
396.44	225.00
396.82	225.03
397.19	225.09
397.57	225.09
397.95	225.14
398.32	225.19
398.70	225.22
399.07	225.29
399.45	225.35
399.82	225.40
400.20	225.42
400.58	225.48
400.95	225.46
401.33	225.51
401.70	225.65
402.08	225.74
402.45	225.81
402.83	225.90
403.20	226.01
403.58	226.11
403.95	226.21
404.33	226.32
404.71	226.44
405.08	226.62
405.46	226.77
405.83	226.88
406.21	227.05
406.58	227.24
406.96	227.40
407.33	227.56
407.70	227.75
408.08	228.03
408.45	228.24
408.83	228.51
409.20	228.73
409.58	228.89
409.95	229.14
410.33	229.41
410.70	229.65
411.08	229.93
411.45	230.23
411.82	230.54
412.20	230.93
412.57	231.30
412.95	231.58
413.32	231.99
413.69	232.39
414.07	232.78
414.44	233.22
414.82	233.70
415.19	234.24
415.56	234.78
415.94	235.30
416.31	235.92
416.68	236.53
417.06	237.24
417.43	237.93
417.81	238.66
418.18	239.45
418.55	240.29
418.93	241.18
419.30	242.06
419.67	242.97
420.04	243.92
420.42	244.91
420.79	246.08
421.16	247.21
421.54	248.47
421.91	249.69
422.28	250.93
422.66	252.24
423.03	253.54
423.40	254.90
423.77	256.31
424.15	257.74
424.52	259.24
424.89	260.83
425.26	262.38
425.64	263.85
426.01	265.46
426.38	267.09
426.75	268.74
427.13	270.48
427.50	272.29
427.87	274.11
428.24	275.97
428.61	277.69
428.99	279.63
429.36	281.63
429.73	283.69
430.10	285.72
430.47	287.76
430.85	289.81
431.22	292.02
431.59	294.41
431.96	296.64
432.33	299.13
432.70	301.52
433.08	304.32
433.45	306.95
433.82	309.49
434.19	312.35
434.56	315.13
434.93	317.77
435.30	320.40
435.68	323.26
436.05	326.07
436.42	328.86
436.79	331.37
437.16	334.08
437.53	336.93
437.90	339.73
438.27	342.47
438.64	345.35
439.01	347.94
439.38	350.13
439.75	352.26
440.13	354.70
440.50	357.01
440.87	358.75
441.24	360.65
441.61	362.82
441.98	364.29
442.35	366.10
442.72	367.95
443.09	369.73
443.46	370.73
443.83	371.34
444.20	371.84
444.57	372.71
444.94	372.96
445.31	373.26
445.68	373.60
446.05	373.72
446.42	373.27
446.79	372.84
447.16	372.44
447.53	372.14
447.90	371.00
448.27	369.83
448.64	368.40
449.01	367.28
449.37	365.33
449.74	363.44
450.11	361.23
450.48	358.74
450.85	356.26
451.22	354.17
451.59	352.17
451.96	350.29
452.33	347.64
452.70	345.35
453.07	342.53
453.43	339.66
453.80	336.89
454.17	334.29
454.54	331.77
454.91	329.09
455.28	326.45
455.65	324.00
456.02	321.62
456.38	319.46
456.75	316.83
457.12	314.61
457.49	312.46
457.86	310.30
458.23	308.49
458.59	306.47
458.96	304.38
459.33	302.52
459.70	300.64
460.07	299.21
460.43	297.52
460.80	295.94
461.17	294.53
461.54	293.05
461.91	291.67
462.27	290.24
462.64	289.00
463.01	287.64
463.38	286.38
463.74	285.01
464.11	283.84
464.48	282.83
464.85	281.76
465.21	280.90
465.58	279.99
465.95	278.92
466.32	278.03
466.68	277.17
467.05	276.32
467.42	275.46
467.78	274.55
468.15	273.69
468.52	273.05
468.88	272.20
469.25	271.42
469.62	270.79
469.98	270.13
470.35	269.50
470.72	268.94
471.08	268.28
471.45	267.73
471.82	267.22
472.18	266.64
472.55	266.18
472.92	265.69
473.28	265.21
473.65	264.79
474.02	264.34
474.38	263.92
474.75	263.59
475.11	263.26
475.48	262.99
475.85	262.79
476.21	262.58
476.58	262.41
476.94	262.30
477.31	262.16
477.67	262.01
478.04	261.90
478.41	261.83
478.77	261.86
479.14	261.80
479.50	261.80
479.87	261.89
480.23	261.98
480.60	262.02
480.96	262.12
481.33	262.35
481.69	262.55
482.06	262.79
482.42	263.01
482.79	263.26
483.15	263.56
483.52	263.94
483.88	264.30
484.25	264.70
484.61	265.12
484.98	265.54
485.34	266.11
485.71	266.67
486.07	267.27
486.44	267.85
486.80	268.56
487.17	269.31
487.53	270.10
487.90	270.92
488.26	271.86
488.62	272.88
488.99	273.82
489.35	274.83
489.72	275.95
490.08	277.15
490.44	278.39
490.81	279.70
491.17	281.03
491.54	282.49
491.90	284.02
492.26	285.68
492.63	287.43
492.99	289.21
493.36	291.11
493.72	293.13
494.08	295.20
494.45	297.46
494.81	299.78
495.17	302.21
495.54	304.80
495.90	307.47
496.26	310.25
496.63	313.21
496.99	316.33
497.35	319.58
497.72	322.93
498.08	326.44
498.44	330.13
498.80	334.03
499.17	338.03
499.53	342.13
499.89	346.42
500.26	350.85
500.62	355.43
500.98	360.41
501.34	365.47
501.71	370.78
502.07	376.15
502.43	381.75
502.79	387.51
503.16	393.51
503.52	399.73
503.88	406.04
504.24	412.63
504.60	419.42
504.97	426.42
505.33	433.67
505.69	441.26
506.05	448.96
506.41	456.71
506.78	464.80
507.14	473.21
507.50	481.84
507.86	490.80
508.22	499.96
508.59	509.02
508.95	518.46
509.31	528.16
509.67	538.19
510.03	548.35
510.39	558.78
510.75	569.43
511.12	580.18
511.48	591.42
511.84	602.66
512.20	614.00
512.56	625.77
512.92	637.78
513.28	649.98
513.64	662.26
514.00	674.79
514.37	687.48
514.73	700.27
515.09	713.05
515.45	726.04
515.81	739.38
516.17	753.10
516.53	767.04
516.89	780.99
517.25	794.87
517.61	809.01
517.97	823.20
518.33	837.34
518.69	851.85
519.05	866.44
519.41	881.22
519.77	896.43
520.13	911.62
520.49	926.66
520.85	941.77
521.21	957.12
521.57	972.98
521.93	988.36
522.29	1004.39
522.65	1020.30
523.01	1036.27
523.37	1051.98
523.73	1067.75
524.09	1083.45
524.45	1099.26
524.81	1115.38
525.17	1131.74
525.53	1148.18
525.89	1164.68
526.25	1181.12
526.61	1197.21
526.97	1213.64
527.33	1229.78
527.68	1245.87
528.04	1261.97
528.40	1278.04
528.76	1294.70
529.12	1310.97
529.48	1327.54
529.84	1343.10
530.20	1359.30
530.56	1375.86
530.91	1392.88
531.27	1409.23
531.63	1425.24
531.99	1441.45
532.35	1457.20
532.71	1472.82
533.07	1488.78
533.42	1504.29
533.78	1519.97
534.14	1535.83
534.50	1550.78
534.86	1566.30
535.21	1581.24
535.57	1596.61
535.93	1611.70
536.29	1625.99
536.65	1640.57
537.00	1654.87
537.36	1669.82
537.72	1684.03
538.08	1698.03
538.44	1711.42
538.79	1724.90
539.15	1738.17
539.51	1751.49
539.87	1765.36
540.22	1778.66
540.58	1791.98
540.94	1804.86
541.29	1817.49
541.65	1829.76
542.01	1842.65
542.37	1854.55
542.72	1866.62
543.08	1878.27
543.44	1890.47
543.79	1901.52
544.15	1912.30
544.51	1923.69
544.87	1934.39
545.22	1945.00
545.58	1955.13
545.94	1964.62
546.29	1974.48
546.65	1984.41
547.01	1993.68
547.36	2002.24
547.72	2010.57
548.07	2018.42
548.43	2026.52
548.79	2034.31
549.14	2041.81
549.50	2048.93
549.86	2056.53
550.21	2063.72
550.57	2070.95
550.92	2077.49
551.28	2084.48
551.64	2091.39
551.99	2097.74
552.35	2103.86
552.70	2109.99
553.06	2115.86
553.41	2122.16
553.77	2128.08
554.13	2133.86
554.48	2139.91
554.84	2145.50
555.19	2150.75
555.55	2155.93
555.90	2160.39
556.26	2165.37
556.61	2170.12
556.97	2174.60
557.32	2178.78
557.68	2182.95
558.03	2187.18
558.39	2190.89
558.74	2195.52
559.10	2199.51
559.45	2203.22
559.81	2207.42
560.16	2211.24
560.52	2214.52
560.87	2218.03
561.23	2220.76
561.58	2223.82
561.94	2226.44
562.29	2228.72
562.64	2231.67
563.00	2234.20
563.35	2237.96
563.71	2241.01
564.06	2244.28
564.42	2247.23
564.77	2250.01
565.12	2252.67
565.48	2254.72
565.83	2256.83
566.19	2258.39
566.54	2259.42
566.89	2260.94
567.25	2261.93
567.60	2263.29
567.96	2265.16
568.31	2266.17
568.66	2267.63
569.02	2268.35
569.37	2268.85
569.72	2269.92
570.08	2270.20
570.43	2270.53
570.78	2270.04
571.14	2268.79
571.49	2267.63
571.84	2267.48
572.20	2266.54
572.55	2265.54
572.90	2264.05
573.26	2262.89
573.61	2261.22
573.96	2259.80
574.31	2256.94
574.67	2254.11
575.02	2250.77
575.37	2247.68
575.72	2244.18
576.08	2240.83
576.43	2237.76
576.78	2234.31
577.13	2231.38
577.49	2228.40
577.84	2225.11
578.19	2221.64
578.54	2218.45
578.90	2214.54
579.25	2209.21
579.60	2204.40
579.95	2199.60
580.30	2194.91
580.66	2189.93
581.01	2185.39
581.36	2180.69
581.71	2176.79
582.06	2172.78
582.42	2168.70
582.77	2163.66
583.12	2159.31
583.47	2154.94
583.82	2150.19
584.17	2145.09
584.53	2139.96
584.88	2134.56
585.23	2129.06
585.58	2123.69
585.93	2118.26
586.28	2113.66
586.63	2108.95
586.98	2104.06
587.34	2099.55
587.69	2094.85
588.04	2089.80
588.39	2084.32
588.74	2078.01
589.09	2072.06
589.44	2065.35
589.79	2059.35
590.14	2053.89
590.49	2047.59
590.84	2041.20
591.19	2035.32
591.54	2029.32
591.89	2022.19
592.25	2015.73
592.60	2008.70
592.95	2001.32
593.30	1994.14
593.65	1986.71
594.00	1979.76
594.35	1972.79
594.70	1964.87
595.05	1958.01
595.40	1950.90
595.75	1943.54
596.10	1937.53
596.45	1931.07
596.80	1925.07
597.15	1918.57
597.50	1911.81
597.85	1905.52
598.19	1899.14
598.54	1892.29
598.89	1885.70
599.24	1879.94
599.59	1873.53
599.94	1867.50
600.29	1861.47
600.64	1855.11
600.99	1847.89
601.34	1841.26
601.69	1834.29
602.04	1827.87
602.39	1820.49
602.74	1813.75
603.08	1807.15
603.43	1800.59
603.78	1793.31
604.13	1786.22
604.48	1779.29
604.83	1772.54
605.18	1765.82
605.53	1758.07
605.87	1750.16
606.22	1743.04
606.57	1735.24
606.92	1727.87
607.27	1720.87
607.62	1714.07
607.96	1706.98
608.31	1700.64
608.66	1693.18
609.01	1685.93
609.36	1678.29
609.70	1670.44
610.05	1662.54
610.40	1654.95
610.75	1646.69
611.10	1639.22
611.44	1630.78
611.79	1622.78
612.14	1614.07
612.49	1604.83
612.83	1596.39
613.18	1588.33
613.53	1580.34
613.88	1571.76
614.22	1563.55
614.57	1554.89
614.92	1546.95
615.27	1539.42
615.61	1531.10
615.96	1523.14
616.31	1515.44
616.65	1508.13
617.00	1500.67
617.35	1493.11
617.70	1485.00
618.04	1476.74
618.39	1468.41
618.74	1461.06
619.08	1452.83
619.43	1445.31
619.78	1438.42
620.12	1431.43
620.47	1424.09
620.82	1415.95
621.16	1408.53
621.51	1400.87
621.85	1393.37
622.20	1384.90
622.55	1376.53
622.89	1368.70
623.24	1360.98
623.59	1353.54
623.93	1346.05
624.28	1338.91
624.62	1331.39
624.97	1324.14
625.32	1317.24
625.66	1310.33
626.01	1303.17
626.35	1295.80
626.70	1288.14
627.04	1280.53
627.39	1272.68
627.73	1265.19
628.08	1258.27
628.43	1251.09
628.77	1243.86
629.12	1236.25
629.46	1229.16
629.81	1221.73
630.15	1214.46
630.50	1207.17
630.84	1199.17
631.19	1191.22
631.53	1183.67
631.88	1176.18
632.22	1168.66
632.57	1161.35
632.91	1153.80
633.26	1146.49
633.60	1139.06
633.95	1131.93
634.29	1124.85
634.64	1118.30
634.98	1110.99
635.32	1103.90
635.67	1097.39
636.01	1090.78
636.36	1084.08
636.70	1077.49
637.05	1071.02
637.39	1064.59
637.73	1058.18
638.08	1052.29
638.42	1046.31
638.77	1039.87
639.11	1033.36
639.45	1026.98
639.80	1020.44
640.14	1014.19
640.49	1007.68
640.83	1001.46
641.17	995.29
641.52	989.03
641.86	982.59
642.20	976.80
642.55	970.47
642.89	964.00
643.23	957.54
643.58	951.87
643.92	945.84
644.26	939.91
644.61	933.86
644.95	927.87
645.29	921.40
645.64	914.74
645.98	908.46
646.32	902.63
646.66	896.67
647.01	890.88
647.35	885.14
647.69	879.25
648.04	873.72
648.38	867.95
648.72	862.12
649.06	856.14
649.41	850.28
649.75	844.40
650.09	838.54
650.43	832.71
650.78	826.54
651.12	820.58
651.46	814.83
651.80	809.21
652.14	803.84
652.49	798.42
652.83	793.34
653.17	787.77
653.51	782.07
653.85	776.63
654.20	771.12
654.54	765.20
654.88	759.56
655.22	753.74
655.56	748.08
655.90	742.58
656.25	737.39
656.59	732.11
656.93	727.01
657.27	721.86
657.61	716.45
657.95	711.36
658.29	706.29
658.64	701.06
658.98	695.81
659.32	690.38
659.66	685.24
660.00	679.90
660.34	674.96
660.68	670.09
661.02	665.12
661.36	660.33
661.70	655.82
662.05	651.47
662.39	647.20
662.73	642.75
663.07	638.41
663.41	633.95
663.75	629.52
664.09	625.00
664.43	620.61
664.77	616.55
665.11	612.31
665.45	608.13
665.79	604.11
666.13	599.99
666.47	595.89
666.81	591.79
667.15	587.73
667.49	583.85
667.83	579.99
668.17	576.08
668.51	572.08
668.85	568.02
669.19	564.23
669.53	560.42
669.87	556.61
670.21	552.88
670.55	549.19
670.89	545.72
671.23	542.34
671.57	538.83
671.91	535.34
672.25	531.90
672.58	528.39
672.92	525.03
673.26	521.84
673.60	518.72
673.94	515.59
674.28	512.71
674.62	509.74
674.96	506.67
675.30	503.81
675.64	500.94
675.97	498.21
676.31	495.32
676.65	492.42
676.99	489.71
677.33	486.89
677.67	484.13
678.01	481.14
678.34	478.21
678.68	475.38
679.02	472.56
679.36	469.80
679.70	467.11
680.04	464.29
680.37	461.48
680.71	458.64
681.05	456.05
681.39	453.34
681.73	450.71
682.06	448.23
682.40	445.67
682.74	443.10
683.08	440.58
683.42	438.03
683.75	435.51
684.09	432.96
684.43	430.52
684.77	428.05
685.10	425.71
685.44	423.37
685.78	421.11
686.12	418.86
686.45	416.59
686.79	414.34
687.13	412.13
687.46	409.94
687.80	407.87
688.14	405.64
688.48	403.61
688.81	401.41
689.15	399.27
689.49	397.12
689.82	395.10
690.16	393.01
690.50	391.04
690.83	389.11
691.17	387.14
691.51	385.27
691.84	383.48
692.18	381.59
692.52	379.72
692.85	377.74
693.19	375.90
693.52	374.03
693.86	372.26
694.20	370.52
694.53	368.76
694.87	366.89
695.21	365.09
695.54	363.26
695.88	361.53
696.21	359.78
696.55	358.05
696.88	356.33
697.22	354.66
697.56	353.00
697.89	351.35
698.23	349.75
698.56	348.11
698.90	346.53
699.23	344.86
699.57	343.27
699.90	341.75
700.24	340.15
700.58	338.65
700.91	337.17
701.25	335.77
701.58	334.36
701.92	332.98
702.25	331.63
702.59	330.27
702.92	328.91
703.26	327.60
703.59	326.36
703.93	325.17
704.26	323.94
704.60	322.64
704.93	321.39
705.26	320.13
705.60	318.93
705.93	317.72
706.27	316.72
706.60	315.65
706.94	314.57
707.27	313.47
707.61	312.34
707.94	311.29
708.27	310.18
708.61	309.15
708.94	308.16
709.28	307.16
709.61	306.16
709.94	305.21
710.28	304.23
710.61	303.29
710.95	302.20
711.28	301.29
711.61	300.37
711.95	299.44
712.28	298.47
712.61	297.51
712.95	296.60
713.28	295.69
713.61	294.76
713.95	293.84
714.28	293.01
714.61	292.22
714.95	291.36
715.28	290.48
715.61	289.60
715.95	288.74
716.28	287.84
716.61	287.02
716.95	286.22
717.28	285.46
717.61	284.65
717.94	283.96
718.28	283.12
718.61	282.37
718.94	281.68
719.27	281.07
719.61	280.38
719.94	279.71
720.27	278.99
720.60	278.31
720.94	277.72
721.27	277.10
721.60	276.50
721.93	275.89
722.27	275.34
722.60	274.77
722.93	274.20
723.26	273.72
723.59	273.12
723.93	272.56
724.26	272.01
724.59	271.44
724.92	270.94
725.25	270.45
725.59	269.97
725.92	269.47
726.25	268.94
726.58	268.49
726.91	267.98
727.24	267.52
727.57	267.04
727.91	266.53
728.24	266.07
728.57	265.58
728.90	265.16
729.23	264.65
729.56	264.22
729.89	263.76
730.22	263.27
730.55	262.84
730.89	262.41
731.22	261.98
731.55	261.55
731.88	261.08
732.21	260.60
732.54	260.18
732.87	259.76
733.20	259.36
733.53	258.97
733.86	258.59
734.19	258.22
734.52	257.87
734.85	257.60
735.18	257.19
735.51	256.83
735.84	256.43
736.17	256.08
736.50	255.71
736.83	255.45
737.16	255.12
737.49	254.78
737.82	254.45
738.15	254.11
738.48	253.79
738.81	253.48
739.14	253.19
739.47	252.85
739.80	252.53
740.13	252.25
740.46	251.93
740.79	251.63
741.12	251.26
741.45	250.94
741.78	250.60
742.11	250.35
742.44	250.03
742.77	249.76
743.10	249.47
743.43	249.13
743.75	248.77
744.08	248.61
744.41	248.38
744.74	248.10
745.07	247.83
745.40	247.59
745.73	247.34
746.06	247.06
746.39	246.82
746.71	246.57
747.04	246.28
747.37	245.99
747.70	245.74
748.03	245.51
748.36	245.29
748.68	245.05
749.01	244.78
749.34	244.56
749.67	244.31
750.00	244.09
750.33	243.94
750.65	243.73
750.98	243.40
751.31	243.17
751.64	242.96
751.97	242.77
752.29	242.54
752.62	242.29
752.95	242.07
753.28	241.86
753.60	241.63
753.93	241.48
754.26	241.29
754.59	241.07
754.91	240.86
755.24	240.68
755.57	240.46
755.90	240.27
756.22	240.09
756.55	239.90
756.88	239.70
757.20	239.48
757.53	239.28
757.86	239.09
758.19	238.91
758.51	238.73
758.84	238.52
759.17	238.35
759.49	238.18
759.82	238.07
760.15	237.92
760.47	237.75
760.80	237.54
761.13	237.40
761.45	237.22
761.78	237.11
762.11	236.95
762.43	236.81
762.76	236.67
763.08	236.54
763.41	236.43
763.74	236.32
764.06	236.19
764.39	236.05
764.71	235.92
765.04	235.76
765.37	235.62
765.69	235.49
766.02	235.37
766.34	235.23
766.67	235.06
767.00	234.94
767.32	234.88
767.65	234.85
767.97	234.73
768.30	234.62
768.62	234.48
768.95	234.36
769.27	234.22
769.60	234.12
769.92	233.97
770.25	233.84
770.57	233.74
770.90	233.59
771.22	233.46
771.55	233.41
771.87	233.33
772.20	233.22
772.52	233.20
772.85	233.20
773.17	233.14
773.50	233.05
773.82	232.94
774.15	232.80
774.47	232.61
774.80	232.49
775.12	232.40
775.45	232.33
775.77	232.23
776.09	232.16
776.42	232.08
776.74	232.05
777.07	231.97
777.39	231.88
777.72	231.84
778.04	231.77
778.36	231.64
778.69	231.55
779.01	231.49
779.33	231.35
779.66	231.18
779.98	231.09
780.31	231.04
780.63	231.02
780.95	231.00
781.28	230.97
781.60	230.95
781.92	230.94
782.25	230.86
782.57	230.83
782.89	230.77
783.22	230.70
783.54	230.62
783.86	230.57
784.19	230.51
784.51	230.46
784.83	230.41
785.16	230.39
785.48	230.32
785.80	230.29
786.12	230.25
786.45	230.21
786.77	230.19
787.09	230.16
787.42	230.12
787.74	230.07
788.06	230.02
788.38	230.00
788.71	229.90
789.03	229.90
789.35	229.85
789.67	229.79
789.99	229.80
790.32	229.75
790.64	229.74
790.96	229.79
791.28	229.73
791.61	229.71
791.93	229.65
792.25	229.69
792.57	229.71
792.89	229.65
793.21	229.62
793.54	229.58
793.86	229.52
794.18	229.47
794.50	229.43
794.82	229.41
795.14	229.35
795.47	229.34
795.79	229.30
796.11	229.26
796.43	229.23
796.75	229.18
797.07	229.13
797.39	229.07
797.71	228.99
798.04	228.97
798.36	228.92
798.68	228.90
799.00	228.84
799.32	228.78
799.64	228.77
799.96	228.72
800.28	228.69
800.60	228.67
800.92	228.61
801.24	228.54
801.56	228.53
801.89	228.49
802.21	228.46
802.53	228.38
802.85	228.36
803.17	228.36
803.49	228.30
803.81	228.28
804.13	228.22
804.45	228.12
804.77	228.11
805.09	228.06
805.41	228.04
805.73	227.99
806.05	227.90
806.37	227.89
806.69	227.87
807.01	227.82
807.33	227.77
807.65	227.71
807.97	227.76
808.28	227.69
808.60	227.66
808.92	227.60
809.24	227.65
809.56	227.61
809.88	227.55
810.20	227.49
810.52	227.49
810.84	227.46
811.16	227.46
811.48	227.41
811.80	227.43
812.12	227.36
812.43	227.36
812.75	227.36
813.07	227.28
813.39	227.27
813.71	227.24
814.03	227.21
814.35	227.22
814.67	227.15
814.98	227.14
815.30	227.13
815.62	227.11
815.94	227.00
816.26	227.01
816.58	226.99
816.89	226.99
817.21	226.93
817.53	226.93
817.85	226.92
818.17	226.88
818.48	226.83
818.80	226.84
819.12	226.81
819.44	226.76
819.76	226.74
820.07	226.71
820.39	226.70
820.71	226.69
821.03	226.69
821.34	226.67
821.66	226.66
821.98	226.66
822.30	226.65
822.61	226.71
822.93	226.67
823.25	226.65
823.57	226.65
823.88	226.66
824.20	226.66
824.52	226.66
824.83	226.68
825.15	226.67
825.47	226.64
825.79	226.63
826.10	226.67
826.42	226.67
826.74	226.66
827.05	226.66
827.37	226.68
827.69	226.66
828.00	226.67
828.32	226.66
828.64	226.65
828.95	226.71
829.27	226.71
829.58	226.70
829.90	226.73
830.22	226.74
830.53	226.71
830.85	226.68
831.17	226.66
831.48	226.64
831.80	226.63
832.11	226.63
832.43	226.63
832.75	226.59
833.06	226.61
833.38	226.61
833.69	226.60
834.01	226.59
834.32	226.56
834.64	226.55
834.96	226.55
835.27	226.53
835.59	226.46
835.90	226.43
836.22	226.43
836.53	226.42
836.85	226.42
837.16	226.52
837.48	226.51
837.79	226.54
838.11	226.56
838.42	226.56
838.74	226.58
839.05	226.54
839.37	226.52
839.68	226.50
840.00	226.48
840.31	226.49
840.63	226.48
840.94	226.49
841.26	226.45
841.57	226.43
841.88	226.44
842.20	226.47
842.51	226.43
842.83	226.42
843.14	226.53
843.46	226.48
843.77	226.40
844.08	226.38
844.40	226.33
844.71	226.29
845.03	226.29
845.34	226.28
845.65	226.28
845.97	226.27
846.28	226.26
846.60	226.25
846.91	226.24
847.22	226.18
847.54	226.17
847.85	226.18
848.16	226.15
848.48	226.11
848.79	226.09
849.10	226.11
849.42	226.10
849.73	225.97
850.04	225.96
850.36	225.91
850.67	225.94
850.98	225.95
851.30	225.95
851.61	225.93
851.92	225.93
852.23	225.95
852.55	225.97
852.86	225.95
853.17	225.92
853.49	225.91
853.80	225.96
854.11	225.98
854.42	225.99
854.74	226.01
855.05	226.00
855.36	225.96
855.67	225.94
855.99	225.91
856.30	226.02
856.61	226.02
856.92	226.05
857.23	226.03
857.55	226.01
857.86	225.99
858.17	226.01
858.48	225.98
858.79	225.96
859.11	225.96
859.42	225.99
859.73	226.01
860.04	225.99
860.35	225.96
860.66	225.89
860.98	225.88
861.29	225.88
861.60	225.89
861.91	225.90
862.22	225.92
862.53	225.92
862.84	225.80
863.16	225.82
863.47	225.80
863.78	225.79
864.09	225.80
864.40	225.80
864.71	225.81
865.02	225.84
865.33	225.83
865.64	225.85
865.95	225.85
866.27	225.92
866.58	225.92
866.89	225.95
867.20	225.98
867.51	225.96
867.82	225.95
868.13	225.98
868.44	225.95
868.75	225.94
869.06	225.95
869.37	225.95
869.68	225.93
869.99	225.95
870.30	225.96
870.61	225.98
870.92	225.99
871.23	225.96
871.54	225.95
871.85	225.97
872.16	225.97
872.47	225.94
872.78	225.89
873.09	225.92
873.40	225.92
873.71	225.95
874.02	225.95
874.33	225.94
874.64	225.91
874.95	225.93
875.26	225.91
875.56	225.91
875.87	225.94
876.18	225.94
876.49	226.03
876.80	226.01
877.11	226.00
877.42	225.99
877.73	226.01
878.04	226.01
878.35	225.99
878.66	225.97
878.96	225.99
879.27	225.96
879.58	225.92
879.89	225.89
880.20	225.88
880.51	225.87
880.82	225.88
881.12	225.87
881.43	225.86
881.74	225.86
882.05	225.82
882.36	225.79
882.67	225.78
882.97	225.64
883.28	225.63
883.59	225.57
883.90	225.58
884.21	225.57
884.51	225.55
884.82	225.54
885.13	225.56
885.44	225.52
885.74	225.52
886.05	225.51
886.36	225.50
886.67	225.45
886.98	225.48
887.28	225.50
887.59	225.49
887.90	225.51
888.20	225.51
888.51	225.55
888.82	225.51
889.13	225.52
889.43	225.62
889.74	225.60
890.05	225.64
890.35	225.64
890.66	225.63
890.97	225.62
891.28	225.59
891.58	225.56
891.89	225.55
892.20	225.57
892.50	225.57
892.81	225.53
893.12	225.55
893.42	225.51
893.73	225.48
894.04	225.49
894.34	225.46
894.65	225.44
894.95	225.41
895.26	225.43
895.57	225.48
895.87	225.40
896.18	225.45
896.48	225.44
896.79	225.39
897.10	225.38
897.40	225.35
897.71	225.37
898.01	225.35
898.32	225.39
898.63	225.36
898.93	225.36
899.24	225.40
899.54	225.36
899.85	225.37
900.15	225.39
900.46	225.39
900.76	225.43
901.07	225.40
901.38	225.43
901.68	225.46
901.99	225.41
902.29	225.39
902.60	225.34
902.90	225.34
903.21	225.38
903.51	225.40
903.82	225.44
904.12	225.46
904.43	225.49
904.73	225.46
905.03	225.48
905.34	225.58
905.64	225.56
905.95	225.58
906.25	225.58
906.56	225.55
906.86	225.55
907.17	225.53
907.47	225.58
907.77	225.57
908.08	225.55
908.38	225.56
908.69	225.56
908.99	225.57
909.30	225.58
909.60	225.58
909.90	225.60
910.21	225.54
910.51	225.51
910.81	225.48
911.12	225.49
911.42	225.49
911.73	225.39
912.03	225.40
912.33	225.44
912.64	225.47
912.94	225.48
913.24	225.44
913.55	225.45
913.85	225.44
914.15	225.47
914.46	225.47
914.76	225.43
915.06	225.45
915.37	225.45
915.67	225.44
915.97	225.44
916.27	225.41
916.58	225.45
916.88	225.48
917.18	225.50
917.49	225.56
917.79	225.54
918.09	225.55
918.39	225.60
918.70	225.58
919.00	225.55
919.30	225.58
919.60	225.60
919.91	225.59
920.21	225.59
920.51	225.56
920.81	225.58
921.12	225.58
921.42	225.58
921.72	225.58
922.02	225.60
922.32	225.60
922.63	225.60
922.93	225.66
923.23	225.62
923.53	225.59
923.83	225.52
924.13	225.53
924.44	225.52
924.74	225.51
925.04	225.52
925.34	225.52
925.64	225.47
925.94	225.47
926.24	225.48
926.55	225.44
926.85	225.44
927.15	225.42
927.45	225.46
927.75	225.48
928.05	225.49
928.35	225.46
928.65	225.49
928.95	225.46
929.26	225.42
929.56	225.46
929.86	225.50
930.16	225.48
930.46	225.46
930.76	225.45
931.06	225.39
931.36	225.35
931.66	225.38
931.96	225.39
932.26	225.38
932.56	225.37
932.86	225.37
933.16	225.36
933.46	225.35
933.76	225.31
934.06	225.32
934.36	225.31
934.66	225.31
934.96	225.25
935.26	225.27
935.56	225.26
935.86	225.21
936.16	225.18
936.46	225.19
936.76	225.18
937.06	225.15
937.36	225.20
937.66	225.20
937.96	225.15
938.26	225.12
938.56	225.13
938.86	225.11
939.16	225.14
939.46	225.15
939.76	225.16
940.06	225.12
940.35	225.09
940.65	225.07
940.95	225.07
941.25	225.06
941.55	225.03
941.85	225.02
942.15	225.06
942.45	225.06
942.75	225.02
943.04	225.05
943.34	225.10
943.64	225.06
943.94	225.05
944.24	225.04
944.54	225.06
944.84	225.06
945.13	225.04
945.43	225.01
945.73	224.97
946.03	224.97
946.33	224.97
946.62	224.92
946.92	224.91
947.22	224.93
947.52	224.92
947.82	224.93
948.11	224.92
948.41	224.88
948.71	224.85
949.01	224.87
949.31	224.84
949.60	224.81
949.90	224.82
950.20	224.83
950.50	224.84
950.79	224.81
951.09	224.82
951.39	224.84
951.69	224.83
951.98	224.88
952.28	224.89
952.58	224.91
952.87	224.90
953.17	224.92
953.47	224.92
953.76	224.96
954.06	224.97
954.36	224.95
954.66	224.96
954.95	225.01
955.25	225.05
955.55	225.05
955.84	225.05
956.14	225.09
956.44	225.10
956.73	225.09
957.03	225.15
957.32	225.15
957.62	225.13
957.92	225.17
958.21	225.14
958.51	225.27
958.81	225.29
959.10	225.32
959.40	225.34
959.69	225.34
959.99	225.38
960.29	225.36
960.58	225.39
960.88	225.45
961.17	225.44
961.47	225.43
961.76	225.45
962.06	225.48
962.36	225.45
962.65	225.48
962.95	225.51
963.24	225.50
963.54	225.51
963.83	225.55
964.13	225.58
964.42	225.56
964.72	225.45
965.01	225.48
965.31	225.52
965.60	225.50
965.90	225.55
966.19	225.51
966.49	225.53
966.78	225.53
967.08	225.54
967.37	225.51
967.67	225.52
967.96	225.51
968.26	225.51
968.55	225.51
968.85	225.48
969.14	225.46
969.43	225.47
969.73	225.47
970.02	225.42
970.32	225.39
970.61	225.42
970.91	225.39
971.20	225.34
971.49	225.31
971.79	225.35
972.08	225.29
972.38	225.29
972.67	225.29
972.96	225.28
973.26	225.24
973.55	225.29
973.85	225.28
974.14	225.27
974.43	225.26
974.73	225.22
975.02	225.21
975.31	225.21
975.61	225.19
975.90	225.19
976.19	225.20
976.49	225.21
976.78	225.23
977.07	225.25
977.37	225.25
977.66	225.26
977.95	225.20
978.24	225.21
978.54	225.23
978.83	225.21
979.12	225.24
979.42	225.23
979.71	225.23
980.00	225.22
980.29	225.21
980.59	225.23
980.88	225.26
981.17	225.27
981.46	225.27
981.76	225.28
982.05	225.31
982.34	225.32
982.63	225.29
982.93	225.30
983.22	225.30
983.51	225.32
983.80	225.30
984.09	225.33
984.39	225.31
984.68	225.30
984.97	225.30
985.26	225.27
985.55	225.30
985.85	225.26
986.14	225.30
986.43	225.33
986.72	225.28
987.01	225.28
987.30	225.27
987.59	225.29
987.89	225.26
988.18	225.22
988.47	225.22
988.76	225.24
989.05	225.19
989.34	225.18
989.63	225.20
989.92	225.22
990.22	225.20
990.51	225.25
990.80	225.24
991.09	225.24
991.38	225.27
991.67	225.27
991.96	225.29
992.25	225.30
992.54	225.25
992.83	225.29
993.12	225.29
993.41	225.34
993.70	225.36
993.99	225.39
994.28	225.39
994.58	225.41
994.87	225.42
995.16	225.41
995.45	225.42
995.74	225.41
996.03	225.39
996.32	225.43
996.61	225.42
996.90	225.41
997.19	225.38
997.48	225.38
997.77	225.38
998.06	225.37
998.34	225.34
998.63	225.34
998.92	225.36
999.21	225.37
999.50	225.37
999.79	225.31
1000.08	225.29
1000.37	225.29
1000.66	225.30
1000.95	225.32
1001.24	225.32
1001.53	225.32
1001.82	225.29
1002.11	225.30
1002.40	225.29
1002.68	225.31
1002.97	225.39
1003.26	225.43
1003.55	225.42
1003.84	225.40
1004.13	225.43
1004.42	225.43
1004.71	225.45
1004.99	225.40
1005.28	225.42
1005.57	225.39
1005.86	225.37
1006.15	225.39
1006.44	225.37
1006.72	225.34
1007.01	225.29
1007.30	225.30
1007.59	225.30
1007.88	225.33
1008.17	225.31
1008.45	225.28
1008.74	225.24
1009.03	225.19
1009.32	225.18
1009.60	225.18
1009.89	225.15
1010.18	225.10
1010.47	225.10
1010.76	225.07
1011.04	225.09
1011.33	225.11
1011.62	225.11
1011.91	225.12
1012.19	225.11
1012.48	225.13
1012.77	225.15
1013.05	225.19
1013.34	225.21
1013.63	225.20
1013.92	225.20
1014.20	225.22
1014.49	225.25
1014.78	225.26
1015.06	225.23
1015.35	225.24
1015.64	225.25
1015.92	225.24
1016.21	225.25
1016.50	225.26
1016.78	225.30
1017.07	225.31
1017.36	225.28
1017.64	225.27
1017.93	225.29
1018.22	225.29
1018.50	225.28
1018.79	225.26
1019.08	225.23
1019.36	225.20
1019.65	225.18
1019.93	225.20
1020.22	225.22
1020.51	225.22
1020.79	225.23
1021.08	224.88
1021.36	225.18
1021.65	224.84
1021.94	225.35
1022.22	224.73
1022.51	224.74
1022.79	225.85
1023.08	225.56
1023.36	225.79
1023.65	225.33
>>>>>End Processed Spectral Data<<<<<
