SpectraSuite Data File
++++++++++++++++++++++++++++++++++++
Date: Fri Feb 01 17:12:53 EST 2013
User: group
Dark Spectrum Present: No
Reference Spectrum Present: No
Number of Sampled Component Spectra: 1
Spectrometers: USB2E7196
Integration Time (usec): 35000 (USB2E7196)
Spectra Averaged: 100 (USB2E7196)
Boxcar Smoothing: 10 (USB2E7196)
Correct for Electrical Dark: No (USB2E7196)
Strobe/Lamp Enabled: No (USB2E7196)
Correct for Detector Non-linearity: No (USB2E7196)
Correct for Stray Light: No (USB2E7196)
Number of Pixels in Processed Spectrum: 2048
>>>>>Begin Processed Spectral Data<<<<<
339.09	0.00
339.48	212.96
339.86	214.69
340.24	215.50
340.63	217.41
341.01	220.37
341.39	220.04
341.78	221.30
342.16	222.31
342.54	223.06
342.93	211.50
343.31	222.18
343.69	222.72
344.07	223.18
344.46	223.60
344.84	223.98
345.22	224.20
345.60	224.45
345.99	224.64
346.37	224.77
346.75	224.89
347.13	224.90
347.52	224.95
347.90	225.05
348.28	225.08
348.66	225.15
349.05	225.12
349.43	225.14
349.81	225.21
350.19	225.27
350.57	225.33
350.96	225.39
351.34	225.51
351.72	225.59
352.10	225.72
352.48	225.82
352.87	225.87
353.25	225.95
353.63	226.06
354.01	226.12
354.39	226.22
354.77	226.29
355.15	226.43
355.54	226.47
355.92	226.49
356.30	226.54
356.68	226.65
357.06	226.75
357.44	226.81
357.82	226.89
358.20	226.98
358.58	227.08
358.97	227.17
359.35	227.23
359.73	227.33
360.11	227.38
360.49	227.44
360.87	227.50
361.25	227.57
361.63	227.60
362.01	227.68
362.39	227.72
362.77	227.79
363.15	227.81
363.53	227.85
363.91	227.89
364.29	227.97
364.67	227.94
365.05	227.98
365.43	228.02
365.81	228.03
366.19	228.06
366.57	228.07
366.95	228.08
367.33	228.09
367.71	228.07
368.09	228.08
368.47	228.08
368.85	228.08
369.23	228.09
369.61	228.06
369.99	228.07
370.37	228.06
370.75	228.06
371.13	228.04
371.51	227.99
371.89	227.95
372.27	227.92
372.65	227.84
373.03	227.78
373.41	227.72
373.78	227.67
374.16	227.58
374.54	227.51
374.92	227.44
375.30	227.37
375.68	227.30
376.06	227.24
376.44	227.18
376.82	227.11
377.19	227.02
377.57	226.97
377.95	226.87
378.33	226.78
378.71	226.66
379.09	226.61
379.47	226.59
379.84	226.53
380.22	226.45
380.60	226.40
380.98	226.32
381.36	226.23
381.73	226.17
382.11	226.13
382.49	226.05
382.87	225.99
383.25	225.93
383.62	225.95
384.00	225.92
384.38	225.84
384.76	225.76
385.13	225.74
385.51	225.66
385.89	225.57
386.27	225.52
386.64	225.48
387.02	225.41
387.40	225.36
387.78	225.31
388.15	225.26
388.53	225.20
388.91	225.20
389.29	225.17
389.66	225.10
390.04	225.04
390.42	225.04
390.79	224.97
391.17	224.95
391.55	224.85
391.92	224.78
392.30	224.76
392.68	224.76
393.05	224.73
393.43	224.73
393.81	224.75
394.18	224.74
394.56	224.72
394.94	224.72
395.31	224.68
395.69	224.75
396.06	224.81
396.44	224.83
396.82	224.82
397.19	224.91
397.57	224.95
397.95	225.01
398.32	225.01
398.70	225.08
399.07	225.15
399.45	225.20
399.82	225.24
400.20	225.32
400.58	225.40
400.95	225.45
401.33	225.53
401.70	225.67
402.08	225.74
402.45	225.86
402.83	225.97
403.20	226.08
403.58	226.14
403.95	226.22
404.33	226.36
404.71	226.51
405.08	226.71
405.46	226.86
405.83	226.99
406.21	227.13
406.58	227.33
406.96	227.48
407.33	227.64
407.70	227.87
408.08	228.17
408.45	228.37
408.83	228.63
409.20	228.85
409.58	229.01
409.95	229.29
410.33	229.55
410.70	229.81
411.08	230.09
411.45	230.42
411.82	230.76
412.20	231.12
412.57	231.51
412.95	231.80
413.32	232.20
413.69	232.62
414.07	233.08
414.44	233.53
414.82	234.05
415.19	234.63
415.56	235.18
415.94	235.72
416.31	236.41
416.68	236.99
417.06	237.77
417.43	238.44
417.81	239.22
418.18	240.01
418.55	240.89
418.93	241.82
419.30	242.74
419.67	243.68
420.04	244.66
420.42	245.67
420.79	246.90
421.16	248.08
421.54	249.27
421.91	250.50
422.28	251.77
422.66	253.06
423.03	254.36
423.40	255.72
423.77	257.12
424.15	258.52
424.52	260.04
424.89	261.61
425.26	263.21
425.64	264.70
426.01	266.36
426.38	268.03
426.75	269.71
427.13	271.48
427.50	273.33
427.87	275.22
428.24	277.09
428.61	278.81
428.99	280.79
429.36	282.89
429.73	284.95
430.10	287.00
430.47	289.06
430.85	291.20
431.22	293.42
431.59	295.84
431.96	298.12
432.33	300.65
432.70	303.04
433.08	305.85
433.45	308.51
433.82	311.13
434.19	314.05
434.56	316.86
434.93	319.49
435.30	322.12
435.68	325.08
436.05	327.95
436.42	330.77
436.79	333.33
437.16	336.12
437.53	339.04
437.90	341.91
438.27	344.71
438.64	347.62
439.01	350.31
439.38	352.55
439.75	354.76
440.13	357.30
440.50	359.67
440.87	361.57
441.24	363.51
441.61	365.68
441.98	367.18
442.35	369.00
442.72	370.88
443.09	372.71
443.46	373.72
443.83	374.35
444.20	374.87
444.57	375.71
444.94	376.00
445.31	376.35
445.68	376.72
446.05	376.83
446.42	376.44
446.79	376.02
447.16	375.58
447.53	375.25
447.90	374.08
448.27	372.94
448.64	371.35
449.01	370.23
449.37	368.25
449.74	366.34
450.11	364.11
450.48	361.62
450.85	359.09
451.22	356.88
451.59	354.82
451.96	352.85
452.33	350.22
452.70	347.84
453.07	344.95
453.43	342.01
453.80	339.18
454.17	336.44
454.54	333.82
454.91	331.13
455.28	328.42
455.65	325.92
456.02	323.45
456.38	321.26
456.75	318.59
457.12	316.31
457.49	314.06
457.86	311.83
458.23	309.96
458.59	307.90
458.96	305.81
459.33	303.94
459.70	302.03
460.07	300.55
460.43	298.78
460.80	297.14
461.17	295.69
461.54	294.17
461.91	292.76
462.27	291.30
462.64	290.00
463.01	288.60
463.38	287.29
463.74	285.89
464.11	284.71
464.48	283.66
464.85	282.53
465.21	281.65
465.58	280.74
465.95	279.62
466.32	278.68
466.68	277.74
467.05	276.83
467.42	275.93
467.78	274.97
468.15	274.12
468.52	273.47
468.88	272.58
469.25	271.81
469.62	271.20
469.98	270.51
470.35	269.89
470.72	269.32
471.08	268.62
471.45	268.06
471.82	267.55
472.18	266.91
472.55	266.47
472.92	265.93
473.28	265.47
473.65	265.05
474.02	264.59
474.38	264.22
474.75	263.90
475.11	263.60
475.48	263.33
475.85	263.05
476.21	262.81
476.58	262.64
476.94	262.52
477.31	262.34
477.67	262.21
478.04	262.06
478.41	261.97
478.77	262.05
479.14	262.01
479.50	262.02
479.87	262.16
480.23	262.22
480.60	262.30
480.96	262.38
481.33	262.56
481.69	262.78
482.06	263.00
482.42	263.19
482.79	263.42
483.15	263.74
483.52	264.15
483.88	264.48
484.25	264.86
484.61	265.26
484.98	265.67
485.34	266.22
485.71	266.80
486.07	267.39
486.44	267.91
486.80	268.59
487.17	269.29
487.53	270.03
487.90	270.88
488.26	271.85
488.62	272.88
488.99	273.83
489.35	274.85
489.72	275.94
490.08	277.14
490.44	278.36
490.81	279.65
491.17	281.01
491.54	282.50
491.90	284.01
492.26	285.66
492.63	287.43
492.99	289.22
493.36	291.12
493.72	293.21
494.08	295.37
494.45	297.62
494.81	299.97
495.17	302.44
495.54	305.04
495.90	307.71
496.26	310.47
496.63	313.44
496.99	316.55
497.35	319.82
497.72	323.20
498.08	326.68
498.44	330.38
498.80	334.28
499.17	338.33
499.53	342.52
499.89	346.84
500.26	351.28
500.62	355.93
500.98	360.89
501.34	365.92
501.71	371.24
502.07	376.63
502.43	382.26
502.79	388.05
503.16	394.05
503.52	400.28
503.88	406.62
504.24	413.21
504.60	420.07
504.97	427.17
505.33	434.50
505.69	442.24
506.05	450.00
506.41	457.83
506.78	465.91
507.14	474.26
507.50	482.91
507.86	491.85
508.22	500.98
508.59	510.03
508.95	519.44
509.31	529.15
509.67	539.16
510.03	549.27
510.39	559.66
510.75	570.32
511.12	581.14
511.48	592.31
511.84	603.64
512.20	615.01
512.56	626.80
512.92	638.69
513.28	650.92
513.64	663.14
514.00	675.58
514.37	688.36
514.73	701.22
515.09	714.13
515.45	727.28
515.81	740.66
516.17	754.53
516.53	768.57
516.89	782.53
517.25	796.49
517.61	810.70
517.97	824.96
518.33	839.09
518.69	853.60
519.05	868.26
519.41	883.24
519.77	898.39
520.13	913.51
520.49	928.79
520.85	943.74
521.21	959.14
521.57	975.13
521.93	990.64
522.29	1006.71
522.65	1022.63
523.01	1038.48
523.37	1054.27
523.73	1070.04
524.09	1085.67
524.45	1101.65
524.81	1118.08
525.17	1134.58
525.53	1151.13
525.89	1167.80
526.25	1184.40
526.61	1200.54
526.97	1216.96
527.33	1233.31
527.68	1249.72
528.04	1265.81
528.40	1282.09
528.76	1298.88
529.12	1315.19
529.48	1331.77
529.84	1347.45
530.20	1363.78
530.56	1380.45
530.91	1397.46
531.27	1414.01
531.63	1430.21
531.99	1446.49
532.35	1462.11
532.71	1477.65
533.07	1493.67
533.42	1509.33
533.78	1524.99
534.14	1540.98
534.50	1556.06
534.86	1571.58
535.21	1586.44
535.57	1602.12
535.93	1617.29
536.29	1631.70
536.65	1646.38
537.00	1660.79
537.36	1675.89
537.72	1690.24
538.08	1704.39
538.44	1717.86
538.79	1731.43
539.15	1744.76
539.51	1758.18
539.87	1772.24
540.22	1785.65
540.58	1798.89
540.94	1811.76
541.29	1824.18
541.65	1836.52
542.01	1849.35
542.37	1861.42
542.72	1873.66
543.08	1885.21
543.44	1897.40
543.79	1908.64
544.15	1919.54
544.51	1931.01
544.87	1941.74
545.22	1952.37
545.58	1962.63
545.94	1972.36
546.29	1982.20
546.65	1992.23
547.01	2001.64
547.36	2010.41
547.72	2019.11
548.07	2027.37
548.43	2035.54
548.79	2043.65
549.14	2051.57
549.50	2058.84
549.86	2066.49
550.21	2073.91
550.57	2081.28
550.92	2088.10
551.28	2095.34
551.64	2102.56
551.99	2109.19
552.35	2115.59
552.70	2121.92
553.06	2127.90
553.41	2134.53
553.77	2140.75
554.13	2146.74
554.48	2152.96
554.84	2158.72
555.19	2164.02
555.55	2169.44
555.90	2174.33
556.26	2179.55
556.61	2184.33
556.97	2189.14
557.32	2193.65
557.68	2197.84
558.03	2202.16
558.39	2205.93
558.74	2210.49
559.10	2214.50
559.45	2218.41
559.81	2222.87
560.16	2226.75
560.52	2230.36
560.87	2233.83
561.23	2236.56
561.58	2239.63
561.94	2242.32
562.29	2244.69
562.64	2247.76
563.00	2250.29
563.35	2253.92
563.71	2257.28
564.06	2260.48
564.42	2263.58
564.77	2266.38
565.12	2269.23
565.48	2271.55
565.83	2273.78
566.19	2275.60
566.54	2276.61
566.89	2278.04
567.25	2278.98
567.60	2280.68
567.96	2282.59
568.31	2283.69
568.66	2285.22
569.02	2286.36
569.37	2286.97
569.72	2288.13
570.08	2288.50
570.43	2288.84
570.78	2288.51
571.14	2287.19
571.49	2286.18
571.84	2286.05
572.20	2285.19
572.55	2284.26
572.90	2282.73
573.26	2281.70
573.61	2279.98
573.96	2278.71
574.31	2275.98
574.67	2273.24
575.02	2269.79
575.37	2266.61
575.72	2263.24
576.08	2259.98
576.43	2256.69
576.78	2253.41
577.13	2250.24
577.49	2247.28
577.84	2244.12
578.19	2240.55
578.54	2237.34
578.90	2233.57
579.25	2228.23
579.60	2223.69
579.95	2219.03
580.30	2214.31
580.66	2209.44
581.01	2204.85
581.36	2200.06
581.71	2196.17
582.06	2192.05
582.42	2187.92
582.77	2182.96
583.12	2178.50
583.47	2174.29
583.82	2169.62
584.17	2164.65
584.53	2159.58
584.88	2154.22
585.23	2148.81
585.58	2143.56
585.93	2138.16
586.28	2133.36
586.63	2128.60
586.98	2123.40
587.34	2118.74
587.69	2114.01
588.04	2108.87
588.39	2103.40
588.74	2097.10
589.09	2091.15
589.44	2084.52
589.79	2078.41
590.14	2072.88
590.49	2066.54
590.84	2060.10
591.19	2054.27
591.54	2047.80
591.89	2040.86
592.25	2034.28
592.60	2027.20
592.95	2019.89
593.30	2012.78
593.65	2005.39
594.00	1998.37
594.35	1991.38
594.70	1983.32
595.05	1976.47
595.40	1969.32
595.75	1961.83
596.10	1956.01
596.45	1949.39
596.80	1943.36
597.15	1937.06
597.50	1930.35
597.85	1924.01
598.19	1917.64
598.54	1910.87
598.89	1904.41
599.24	1898.40
599.59	1892.05
599.94	1885.80
600.29	1879.51
600.64	1872.86
600.99	1865.53
601.34	1858.73
601.69	1851.70
602.04	1845.07
602.39	1837.62
602.74	1830.92
603.08	1824.48
603.43	1817.54
603.78	1810.29
604.13	1803.07
604.48	1795.87
604.83	1788.94
605.18	1782.07
605.53	1773.98
605.87	1765.77
606.22	1758.38
606.57	1750.31
606.92	1742.70
607.27	1735.60
607.62	1728.78
607.96	1721.71
608.31	1715.25
608.66	1707.84
609.01	1700.41
609.36	1692.87
609.70	1684.99
610.05	1676.96
610.40	1669.25
610.75	1661.10
611.10	1653.45
611.44	1645.01
611.79	1636.88
612.14	1628.20
612.49	1618.97
612.83	1610.69
613.18	1602.67
613.53	1594.64
613.88	1586.22
614.22	1577.94
614.57	1569.25
614.92	1561.26
615.27	1553.86
615.61	1545.64
615.96	1537.48
616.31	1529.77
616.65	1522.42
617.00	1514.79
617.35	1507.00
617.70	1498.70
618.04	1490.33
618.39	1481.95
618.74	1474.33
619.08	1466.05
619.43	1458.44
619.78	1451.53
620.12	1444.32
620.47	1436.71
620.82	1428.47
621.16	1420.99
621.51	1413.25
621.85	1405.49
622.20	1396.88
622.55	1388.30
622.89	1380.29
623.24	1372.62
623.59	1365.13
623.93	1357.51
624.28	1350.19
624.62	1342.80
624.97	1335.55
625.32	1328.50
625.66	1321.34
626.01	1314.03
626.35	1306.71
626.70	1298.91
627.04	1291.10
627.39	1283.26
627.73	1275.75
628.08	1268.80
628.43	1261.62
628.77	1254.36
629.12	1246.87
629.46	1239.70
629.81	1232.14
630.15	1224.81
630.50	1217.40
630.84	1209.28
631.19	1201.21
631.53	1193.70
631.88	1185.94
632.22	1178.17
632.57	1170.80
632.91	1163.38
633.26	1156.13
633.60	1148.54
633.95	1141.19
634.29	1134.05
634.64	1127.21
634.98	1119.83
635.32	1112.70
635.67	1105.86
636.01	1099.13
636.36	1092.33
636.70	1085.78
637.05	1079.19
637.39	1072.77
637.73	1066.24
638.08	1060.24
638.42	1054.23
638.77	1047.80
639.11	1041.29
639.45	1034.96
639.80	1028.33
640.14	1021.82
640.49	1015.19
640.83	1008.97
641.17	1002.90
641.52	996.69
641.86	990.18
642.20	984.29
642.55	977.77
642.89	971.41
643.23	964.77
643.58	959.04
643.92	952.85
644.26	946.94
644.61	940.73
644.95	934.63
645.29	928.20
645.64	921.47
645.98	915.01
646.32	908.92
646.66	902.82
647.01	896.95
647.35	891.27
647.69	885.45
648.04	879.79
648.38	873.96
648.72	867.94
649.06	861.94
649.41	856.06
649.75	850.18
650.09	844.17
650.43	838.46
650.78	832.27
651.12	826.27
651.46	820.39
651.80	814.86
652.14	809.45
652.49	804.01
652.83	798.84
653.17	793.24
653.51	787.75
653.85	782.33
654.20	776.83
654.54	770.77
654.88	764.94
655.22	758.98
655.56	753.18
655.90	747.64
656.25	742.43
656.59	737.09
656.93	732.04
657.27	726.88
657.61	721.44
657.95	716.32
658.29	711.17
658.64	705.89
658.98	700.39
659.32	694.91
659.66	689.71
660.00	684.42
660.34	679.50
660.68	674.46
661.02	669.42
661.36	664.66
661.70	660.24
662.05	655.92
662.39	651.72
662.73	647.24
663.07	642.85
663.41	638.41
663.75	633.94
664.09	629.38
664.43	624.98
664.77	620.86
665.11	616.54
665.45	612.44
665.79	608.40
666.13	604.37
666.47	600.29
666.81	596.13
667.15	592.05
667.49	588.05
667.83	584.22
668.17	580.24
668.51	576.11
668.85	572.05
669.19	568.12
669.53	564.29
669.87	560.50
670.21	556.81
670.55	553.09
670.89	549.64
671.23	546.18
671.57	542.61
671.91	539.09
672.25	535.53
672.58	531.94
672.92	528.45
673.26	525.19
673.60	522.01
673.94	518.97
674.28	515.98
674.62	513.03
674.96	509.92
675.30	507.02
675.64	504.13
675.97	501.30
676.31	498.42
676.65	495.45
676.99	492.69
677.33	489.78
677.67	486.96
678.01	483.90
678.34	480.96
678.68	478.09
679.02	475.24
679.36	472.48
679.70	469.72
680.04	467.01
680.37	464.14
680.71	461.30
681.05	458.55
681.39	455.81
681.73	453.13
682.06	450.57
682.40	448.06
682.74	445.48
683.08	442.92
683.42	440.30
683.75	437.77
684.09	435.19
684.43	432.71
684.77	430.23
685.10	427.85
685.44	425.45
685.78	423.15
686.12	420.82
686.45	418.52
686.79	416.20
687.13	413.95
687.46	411.82
687.80	409.62
688.14	407.43
688.48	405.34
688.81	403.10
689.15	400.94
689.49	398.72
689.82	396.63
690.16	394.52
690.50	392.54
690.83	390.56
691.17	388.50
691.51	386.56
691.84	384.70
692.18	382.79
692.52	380.85
692.85	378.91
693.19	377.07
693.52	375.23
693.86	373.47
694.20	371.68
694.53	369.86
694.87	368.02
695.21	366.20
695.54	364.36
695.88	362.62
696.21	360.89
696.55	359.22
696.88	357.55
697.22	355.88
697.56	354.25
697.89	352.63
698.23	351.08
698.56	349.50
698.90	347.93
699.23	346.28
699.57	344.74
699.90	343.17
700.24	341.64
700.58	340.06
700.91	338.57
701.25	337.11
701.58	335.69
701.92	334.30
702.25	332.92
702.59	331.59
702.92	330.26
703.26	328.95
703.59	327.64
703.93	326.38
704.26	325.18
704.60	323.82
704.93	322.51
705.26	321.26
705.60	320.01
705.93	318.82
706.27	317.75
706.60	316.64
706.94	315.56
707.27	314.40
707.61	313.31
707.94	312.25
708.27	311.17
708.61	310.09
708.94	309.07
709.28	308.02
709.61	307.00
709.94	306.05
710.28	305.05
710.61	304.08
710.95	303.04
711.28	302.05
711.61	301.12
711.95	300.22
712.28	299.24
712.61	298.31
712.95	297.36
713.28	296.47
713.61	295.58
713.95	294.67
714.28	293.80
714.61	293.00
714.95	292.16
715.28	291.27
715.61	290.38
715.95	289.55
716.28	288.68
716.61	287.84
716.95	286.97
717.28	286.21
717.61	285.42
717.94	284.69
718.28	283.85
718.61	283.16
718.94	282.43
719.27	281.77
719.61	281.07
719.94	280.38
720.27	279.68
720.60	278.97
720.94	278.36
721.27	277.78
721.60	277.20
721.93	276.60
722.27	276.08
722.60	275.53
722.93	274.93
723.26	274.44
723.59	273.89
723.93	273.37
724.26	272.78
724.59	272.21
724.92	271.63
725.25	271.17
725.59	270.64
725.92	270.17
726.25	269.64
726.58	269.17
726.91	268.72
727.24	268.21
727.57	267.78
727.91	267.27
728.24	266.78
728.57	266.25
728.90	265.75
729.23	265.24
729.56	264.85
729.89	264.36
730.22	263.87
730.55	263.40
730.89	262.95
731.22	262.51
731.55	262.10
731.88	261.68
732.21	261.22
732.54	260.77
732.87	260.32
733.20	259.94
733.53	259.54
733.86	259.10
734.19	258.75
734.52	258.35
734.85	258.03
735.18	257.59
735.51	257.25
735.84	256.87
736.17	256.51
736.50	256.10
736.83	255.90
737.16	255.56
737.49	255.22
737.82	254.84
738.15	254.51
738.48	254.15
738.81	253.84
739.14	253.55
739.47	253.23
739.80	252.92
740.13	252.62
740.46	252.30
740.79	251.98
741.12	251.67
741.45	251.33
741.78	250.96
742.11	250.72
742.44	250.38
742.77	250.12
743.10	249.85
743.43	249.49
743.75	249.08
744.08	248.91
744.41	248.64
744.74	248.39
745.07	248.08
745.40	247.85
745.73	247.65
746.06	247.38
746.39	247.14
746.71	246.88
747.04	246.56
747.37	246.32
747.70	246.07
748.03	245.77
748.36	245.58
748.68	245.33
749.01	245.08
749.34	244.88
749.67	244.59
750.00	244.32
750.33	244.18
750.65	243.95
750.98	243.60
751.31	243.37
751.64	243.14
751.97	242.97
752.29	242.72
752.62	242.43
752.95	242.20
753.28	241.96
753.60	241.71
753.93	241.55
754.26	241.31
754.59	241.09
754.91	240.90
755.24	240.65
755.57	240.46
755.90	240.25
756.22	240.02
756.55	239.81
756.88	239.63
757.20	239.36
757.53	239.15
757.86	238.98
758.19	238.83
758.51	238.66
758.84	238.41
759.17	238.25
759.49	238.08
759.82	237.97
760.15	237.80
760.47	237.67
760.80	237.46
761.13	237.33
761.45	237.19
761.78	237.02
762.11	236.88
762.43	236.72
762.76	236.56
763.08	236.44
763.41	236.35
763.74	236.18
764.06	236.05
764.39	235.91
764.71	235.80
765.04	235.60
765.37	235.47
765.69	235.35
766.02	235.21
766.34	235.05
766.67	234.89
767.00	234.80
767.32	234.73
767.65	234.68
767.97	234.58
768.30	234.46
768.62	234.36
768.95	234.23
769.27	234.12
769.60	234.02
769.92	233.85
770.25	233.71
770.57	233.63
770.90	233.55
771.22	233.44
771.55	233.34
771.87	233.27
772.20	233.18
772.52	233.19
772.85	233.21
773.17	233.15
773.50	233.03
773.82	232.92
774.15	232.79
774.47	232.66
774.80	232.55
775.12	232.50
775.45	232.44
775.77	232.40
776.09	232.32
776.42	232.27
776.74	232.28
777.07	232.23
777.39	232.20
777.72	232.10
778.04	232.06
778.36	231.96
778.69	231.87
779.01	231.83
779.33	231.66
779.66	231.47
779.98	231.40
780.31	231.37
780.63	231.35
780.95	231.33
781.28	231.25
781.60	231.19
781.92	231.11
782.25	231.02
782.57	230.93
782.89	230.86
783.22	230.79
783.54	230.73
783.86	230.68
784.19	230.57
784.51	230.57
784.83	230.52
785.16	230.50
785.48	230.50
785.80	230.41
786.12	230.42
786.45	230.42
786.77	230.39
787.09	230.35
787.42	230.29
787.74	230.24
788.06	230.20
788.38	230.15
788.71	230.10
789.03	230.06
789.35	230.05
789.67	230.01
789.99	229.94
790.32	229.89
790.64	229.82
790.96	229.88
791.28	229.79
791.61	229.74
791.93	229.67
792.25	229.61
792.57	229.65
792.89	229.57
793.21	229.53
793.54	229.46
793.86	229.40
794.18	229.36
794.50	229.27
794.82	229.25
795.14	229.23
795.47	229.20
795.79	229.15
796.11	229.07
796.43	229.04
796.75	229.02
797.07	228.94
797.39	228.92
797.71	228.81
798.04	228.80
798.36	228.77
798.68	228.72
799.00	228.69
799.32	228.62
799.64	228.61
799.96	228.56
800.28	228.52
800.60	228.48
800.92	228.47
801.24	228.44
801.56	228.42
801.89	228.36
802.21	228.30
802.53	228.27
802.85	228.25
803.17	228.27
803.49	228.19
803.81	228.17
804.13	228.15
804.45	228.07
804.77	228.05
805.09	228.01
805.41	228.01
805.73	227.97
806.05	227.93
806.37	227.88
806.69	227.83
807.01	227.82
807.33	227.79
807.65	227.70
807.97	227.67
808.28	227.61
808.60	227.62
808.92	227.59
809.24	227.64
809.56	227.62
809.88	227.55
810.20	227.57
810.52	227.53
810.84	227.47
811.16	227.45
811.48	227.44
811.80	227.45
812.12	227.39
812.43	227.35
812.75	227.32
813.07	227.29
813.39	227.28
813.71	227.24
814.03	227.21
814.35	227.19
814.67	227.18
814.98	227.18
815.30	227.15
815.62	227.13
815.94	227.04
816.26	227.05
816.58	227.04
816.89	227.02
817.21	227.00
817.53	227.02
817.85	227.02
818.17	226.99
818.48	226.98
818.80	227.00
819.12	227.00
819.44	226.97
819.76	226.94
820.07	226.92
820.39	226.94
820.71	226.95
821.03	226.93
821.34	226.88
821.66	226.90
821.98	226.89
822.30	226.90
822.61	226.93
822.93	226.89
823.25	226.84
823.57	226.85
823.88	226.88
824.20	226.85
824.52	226.84
824.83	226.83
825.15	226.78
825.47	226.74
825.79	226.75
826.10	226.74
826.42	226.73
826.74	226.74
827.05	226.68
827.37	226.69
827.69	226.69
828.00	226.73
828.32	226.66
828.64	226.67
828.95	226.68
829.27	226.67
829.58	226.67
829.90	226.66
830.22	226.63
830.53	226.56
830.85	226.57
831.17	226.53
831.48	226.51
831.80	226.50
832.11	226.51
832.43	226.49
832.75	226.46
833.06	226.49
833.38	226.46
833.69	226.49
834.01	226.47
834.32	226.46
834.64	226.42
834.96	226.48
835.27	226.48
835.59	226.44
835.90	226.42
836.22	226.39
836.53	226.39
836.85	226.37
837.16	226.47
837.48	226.43
837.79	226.48
838.11	226.46
838.42	226.45
838.74	226.43
839.05	226.38
839.37	226.39
839.68	226.33
840.00	226.33
840.31	226.30
840.63	226.26
840.94	226.23
841.26	226.22
841.57	226.21
841.88	226.16
842.20	226.14
842.51	226.11
842.83	226.10
843.14	226.20
843.46	226.18
843.77	226.10
844.08	226.09
844.40	226.05
844.71	226.03
845.03	226.03
845.34	226.03
845.65	226.06
845.97	226.03
846.28	226.01
846.60	226.02
846.91	226.02
847.22	226.02
847.54	226.04
847.85	226.03
848.16	225.96
848.48	225.91
848.79	225.97
849.10	225.96
849.42	225.97
849.73	225.86
850.04	225.84
850.36	225.80
850.67	225.82
850.98	225.82
851.30	225.82
851.61	225.77
851.92	225.75
852.23	225.75
852.55	225.73
852.86	225.73
853.17	225.70
853.49	225.71
853.80	225.73
854.11	225.74
854.42	225.72
854.74	225.74
855.05	225.74
855.36	225.67
855.67	225.68
855.99	225.67
856.30	225.80
856.61	225.80
856.92	225.83
857.23	225.82
857.55	225.79
857.86	225.80
858.17	225.83
858.48	225.84
858.79	225.81
859.11	225.85
859.42	225.87
859.73	225.88
860.04	225.89
860.35	225.84
860.66	225.80
860.98	225.80
861.29	225.82
861.60	225.83
861.91	225.85
862.22	225.85
862.53	225.84
862.84	225.70
863.16	225.77
863.47	225.76
863.78	225.74
864.09	225.73
864.40	225.73
864.71	225.72
865.02	225.73
865.33	225.74
865.64	225.72
865.95	225.72
866.27	225.81
866.58	225.79
866.89	225.83
867.20	225.81
867.51	225.82
867.82	225.81
868.13	225.84
868.44	225.82
868.75	225.83
869.06	225.85
869.37	225.86
869.68	225.82
869.99	225.83
870.30	225.86
870.61	225.88
870.92	225.88
871.23	225.88
871.54	225.90
871.85	225.93
872.16	225.93
872.47	225.94
872.78	225.89
873.09	225.89
873.40	225.86
873.71	225.87
874.02	225.88
874.33	225.87
874.64	225.86
874.95	225.88
875.26	225.87
875.56	225.84
875.87	225.85
876.18	225.80
876.49	225.92
876.80	225.90
877.11	225.89
877.42	225.90
877.73	225.91
878.04	225.85
878.35	225.83
878.66	225.83
878.96	225.79
879.27	225.74
879.58	225.75
879.89	225.75
880.20	225.81
880.51	225.79
880.82	225.80
881.12	225.80
881.43	225.81
881.74	225.78
882.05	225.81
882.36	225.79
882.67	225.81
882.97	225.71
883.28	225.69
883.59	225.71
883.90	225.73
884.21	225.73
884.51	225.74
884.82	225.72
885.13	225.75
885.44	225.73
885.74	225.77
886.05	225.75
886.36	225.75
886.67	225.69
886.98	225.74
887.28	225.74
887.59	225.74
887.90	225.70
888.20	225.69
888.51	225.70
888.82	225.69
889.13	225.69
889.43	225.77
889.74	225.77
890.05	225.73
890.35	225.70
890.66	225.69
890.97	225.68
891.28	225.68
891.58	225.68
891.89	225.68
892.20	225.65
892.50	225.64
892.81	225.64
893.12	225.64
893.42	225.60
893.73	225.60
894.04	225.60
894.34	225.63
894.65	225.60
894.95	225.54
895.26	225.55
895.57	225.61
895.87	225.51
896.18	225.55
896.48	225.55
896.79	225.54
897.10	225.52
897.40	225.54
897.71	225.53
898.01	225.50
898.32	225.52
898.63	225.50
898.93	225.50
899.24	225.48
899.54	225.46
899.85	225.43
900.15	225.41
900.46	225.42
900.76	225.43
901.07	225.45
901.38	225.47
901.68	225.48
901.99	225.40
902.29	225.41
902.60	225.39
902.90	225.38
903.21	225.40
903.51	225.41
903.82	225.44
904.12	225.43
904.43	225.46
904.73	225.45
905.03	225.46
905.34	225.57
905.64	225.57
905.95	225.58
906.25	225.61
906.56	225.62
906.86	225.60
907.17	225.59
907.47	225.64
907.77	225.64
908.08	225.65
908.38	225.68
908.69	225.68
908.99	225.69
909.30	225.73
909.60	225.72
909.90	225.73
910.21	225.69
910.51	225.70
910.81	225.68
911.12	225.70
911.42	225.71
911.73	225.61
912.03	225.58
912.33	225.64
912.64	225.61
912.94	225.60
913.24	225.60
913.55	225.59
913.85	225.54
914.15	225.59
914.46	225.58
914.76	225.54
915.06	225.52
915.37	225.49
915.67	225.49
915.97	225.50
916.27	225.48
916.58	225.45
916.88	225.43
917.18	225.43
917.49	225.48
917.79	225.47
918.09	225.47
918.39	225.52
918.70	225.47
919.00	225.48
919.30	225.52
919.60	225.50
919.91	225.50
920.21	225.50
920.51	225.44
920.81	225.44
921.12	225.45
921.42	225.46
921.72	225.44
922.02	225.43
922.32	225.42
922.63	225.44
922.93	225.48
923.23	225.49
923.53	225.48
923.83	225.42
924.13	225.40
924.44	225.44
924.74	225.45
925.04	225.46
925.34	225.45
925.64	225.40
925.94	225.40
926.24	225.43
926.55	225.42
926.85	225.43
927.15	225.41
927.45	225.42
927.75	225.41
928.05	225.42
928.35	225.41
928.65	225.44
928.95	225.42
929.26	225.38
929.56	225.39
929.86	225.41
930.16	225.36
930.46	225.38
930.76	225.39
931.06	225.37
931.36	225.33
931.66	225.34
931.96	225.35
932.26	225.37
932.56	225.33
932.86	225.34
933.16	225.36
933.46	225.34
933.76	225.34
934.06	225.38
934.36	225.44
934.66	225.45
934.96	225.44
935.26	225.44
935.56	225.47
935.86	225.45
936.16	225.42
936.46	225.44
936.76	225.42
937.06	225.36
937.36	225.36
937.66	225.40
937.96	225.41
938.26	225.36
938.56	225.38
938.86	225.40
939.16	225.40
939.46	225.38
939.76	225.41
940.06	225.38
940.35	225.34
940.65	225.27
940.95	225.27
941.25	225.25
941.55	225.25
941.85	225.24
942.15	225.27
942.45	225.31
942.75	225.35
943.04	225.35
943.34	225.38
943.64	225.35
943.94	225.32
944.24	225.31
944.54	225.36
944.84	225.33
945.13	225.32
945.43	225.28
945.73	225.29
946.03	225.24
946.33	225.26
946.62	225.26
946.92	225.23
947.22	225.21
947.52	225.21
947.82	225.20
948.11	225.19
948.41	225.18
948.71	225.12
949.01	225.08
949.31	225.04
949.60	225.04
949.90	225.07
950.20	225.07
950.50	225.07
950.79	225.06
951.09	225.06
951.39	225.04
951.69	225.03
951.98	225.04
952.28	225.04
952.58	225.02
952.87	225.01
953.17	225.04
953.47	225.06
953.76	225.06
954.06	225.01
954.36	224.97
954.66	224.95
954.95	225.00
955.25	225.02
955.55	225.05
955.84	225.02
956.14	225.03
956.44	225.04
956.73	225.03
957.03	225.04
957.32	225.01
957.62	225.01
957.92	225.04
958.21	225.05
958.51	225.16
958.81	225.18
959.10	225.17
959.40	225.17
959.69	225.17
959.99	225.17
960.29	225.21
960.58	225.25
960.88	225.24
961.17	225.23
961.47	225.23
961.76	225.23
962.06	225.25
962.36	225.24
962.65	225.26
962.95	225.24
963.24	225.23
963.54	225.27
963.83	225.30
964.13	225.28
964.42	225.23
964.72	225.14
965.01	225.19
965.31	225.19
965.60	225.17
965.90	225.22
966.19	225.20
966.49	225.19
966.78	225.17
967.08	225.22
967.37	225.21
967.67	225.18
967.96	225.19
968.26	225.17
968.55	225.18
968.85	225.17
969.14	225.17
969.43	225.17
969.73	225.16
970.02	225.13
970.32	225.15
970.61	225.16
970.91	225.15
971.20	225.11
971.49	225.12
971.79	225.14
972.08	225.08
972.38	225.13
972.67	225.12
972.96	225.15
973.26	225.15
973.55	225.16
973.85	225.19
974.14	225.18
974.43	225.18
974.73	225.14
975.02	225.12
975.31	225.11
975.61	225.12
975.90	225.10
976.19	225.11
976.49	225.11
976.78	225.10
977.07	225.09
977.37	225.09
977.66	225.08
977.95	225.06
978.24	225.08
978.54	225.09
978.83	225.07
979.12	225.04
979.42	225.02
979.71	225.01
980.00	224.96
980.29	224.98
980.59	224.98
980.88	225.00
981.17	225.00
981.46	225.01
981.76	225.00
982.05	225.00
982.34	224.98
982.63	224.99
982.93	225.00
983.22	225.03
983.51	225.02
983.80	225.03
984.09	225.02
984.39	225.01
984.68	224.98
984.97	225.01
985.26	224.98
985.55	225.00
985.85	224.97
986.14	225.01
986.43	225.03
986.72	225.04
987.01	225.01
987.30	225.00
987.59	225.00
987.89	224.99
988.18	225.00
988.47	224.97
988.76	224.96
989.05	224.94
989.34	224.93
989.63	224.96
989.92	224.95
990.22	224.97
990.51	224.95
990.80	224.92
991.09	224.92
991.38	224.99
991.67	224.94
991.96	224.94
992.25	224.94
992.54	224.91
992.83	224.90
993.12	224.93
993.41	224.97
993.70	225.00
993.99	225.03
994.28	225.05
994.58	225.07
994.87	225.06
995.16	225.08
995.45	225.08
995.74	225.05
996.03	225.08
996.32	225.11
996.61	225.15
996.90	225.20
997.19	225.20
997.48	225.17
997.77	225.19
998.06	225.21
998.34	225.21
998.63	225.19
998.92	225.17
999.21	225.16
999.50	225.16
999.79	225.12
1000.08	225.11
1000.37	225.12
1000.66	225.11
1000.95	225.16
1001.24	225.11
1001.53	225.12
1001.82	225.10
1002.11	225.07
1002.40	225.08
1002.68	225.05
1002.97	225.10
1003.26	225.09
1003.55	225.08
1003.84	225.06
1004.13	225.10
1004.42	225.05
1004.71	225.08
1004.99	225.10
1005.28	225.17
1005.57	225.17
1005.86	225.17
1006.15	225.17
1006.44	225.13
1006.72	225.13
1007.01	225.09
1007.30	225.14
1007.59	225.12
1007.88	225.15
1008.17	225.18
1008.45	225.13
1008.74	225.11
1009.03	225.03
1009.32	225.02
1009.60	224.99
1009.89	225.01
1010.18	224.99
1010.47	224.99
1010.76	224.99
1011.04	224.96
1011.33	224.93
1011.62	224.92
1011.91	224.92
1012.19	224.92
1012.48	224.95
1012.77	224.96
1013.05	225.01
1013.34	225.01
1013.63	225.00
1013.92	224.99
1014.20	224.95
1014.49	224.97
1014.78	224.96
1015.06	224.95
1015.35	224.98
1015.64	225.00
1015.92	225.00
1016.21	224.99
1016.50	225.01
1016.78	225.00
1017.07	225.00
1017.36	224.98
1017.64	224.97
1017.93	224.97
1018.22	224.96
1018.50	224.94
1018.79	224.92
1019.08	224.86
1019.36	224.85
1019.65	224.85
1019.93	224.87
1020.22	224.89
1020.51	224.95
1020.79	224.97
1021.08	224.88
1021.36	224.88
1021.65	224.69
1021.94	224.62
1022.22	224.78
1022.51	225.03
1022.79	225.31
1023.08	224.78
1023.36	226.44
1023.65	224.82
>>>>>End Processed Spectral Data<<<<<
