SpectraSuite Data File
++++++++++++++++++++++++++++++++++++
Date: Fri Feb 01 17:11:42 EST 2013
User: group
Dark Spectrum Present: No
Reference Spectrum Present: No
Number of Sampled Component Spectra: 1
Spectrometers: USB2E7196
Integration Time (usec): 35000 (USB2E7196)
Spectra Averaged: 100 (USB2E7196)
Boxcar Smoothing: 10 (USB2E7196)
Correct for Electrical Dark: No (USB2E7196)
Strobe/Lamp Enabled: No (USB2E7196)
Correct for Detector Non-linearity: No (USB2E7196)
Correct for Stray Light: No (USB2E7196)
Number of Pixels in Processed Spectrum: 2048
>>>>>Begin Processed Spectral Data<<<<<
339.09	0.00
339.48	212.82
339.86	214.86
340.24	215.75
340.63	217.52
341.01	220.40
341.39	220.44
341.78	221.89
342.16	222.53
342.54	223.76
342.93	211.66
343.31	222.34
343.69	222.89
344.07	223.34
344.46	223.77
344.84	224.16
345.22	224.40
345.60	224.64
345.99	224.79
346.37	224.92
346.75	225.00
347.13	225.06
347.52	225.10
347.90	225.21
348.28	225.25
348.66	225.32
349.05	225.36
349.43	225.43
349.81	225.47
350.19	225.50
350.57	225.58
350.96	225.64
351.34	225.73
351.72	225.83
352.10	225.92
352.48	226.03
352.87	226.09
353.25	226.15
353.63	226.24
354.01	226.30
354.39	226.38
354.77	226.46
355.15	226.57
355.54	226.64
355.92	226.61
356.30	226.68
356.68	226.80
357.06	226.84
357.44	226.90
357.82	226.95
358.20	227.03
358.58	227.11
358.97	227.17
359.35	227.27
359.73	227.32
360.11	227.40
360.49	227.41
360.87	227.45
361.25	227.52
361.63	227.59
362.01	227.65
362.39	227.70
362.77	227.72
363.15	227.76
363.53	227.77
363.91	227.83
364.29	227.83
364.67	227.78
365.05	227.85
365.43	227.83
365.81	227.87
366.19	227.92
366.57	227.96
366.95	227.96
367.33	227.92
367.71	227.92
368.09	227.93
368.47	227.92
368.85	227.88
369.23	227.85
369.61	227.75
369.99	227.80
370.37	227.79
370.75	227.77
371.13	227.71
371.51	227.68
371.89	227.65
372.27	227.60
372.65	227.54
373.03	227.47
373.41	227.47
373.78	227.41
374.16	227.29
374.54	227.20
374.92	227.15
375.30	227.09
375.68	227.01
376.06	226.95
376.44	226.91
376.82	226.88
377.19	226.80
377.57	226.76
377.95	226.63
378.33	226.54
378.71	226.45
379.09	226.39
379.47	226.36
379.84	226.27
380.22	226.23
380.60	226.15
380.98	226.07
381.36	225.96
381.73	225.88
382.11	225.85
382.49	225.82
382.87	225.76
383.25	225.72
383.62	225.79
384.00	225.71
384.38	225.64
384.76	225.59
385.13	225.58
385.51	225.53
385.89	225.47
386.27	225.42
386.64	225.41
387.02	225.38
387.40	225.31
387.78	225.30
388.15	225.24
388.53	225.23
388.91	225.20
389.29	225.16
389.66	225.12
390.04	225.06
390.42	225.04
390.79	225.03
391.17	224.97
391.55	224.83
391.92	224.82
392.30	224.82
392.68	224.79
393.05	224.80
393.43	224.81
393.81	224.85
394.18	224.83
394.56	224.83
394.94	224.82
395.31	224.83
395.69	224.87
396.06	224.92
396.44	224.93
396.82	224.95
397.19	225.05
397.57	225.08
397.95	225.12
398.32	225.13
398.70	225.16
399.07	225.25
399.45	225.31
399.82	225.36
400.20	225.40
400.58	225.47
400.95	225.49
401.33	225.61
401.70	225.73
402.08	225.85
402.45	225.92
402.83	226.05
403.20	226.18
403.58	226.27
403.95	226.40
404.33	226.53
404.71	226.64
405.08	226.82
405.46	226.95
405.83	227.11
406.21	227.24
406.58	227.39
406.96	227.55
407.33	227.71
407.70	227.91
408.08	228.19
408.45	228.41
408.83	228.65
409.20	228.84
409.58	228.99
409.95	229.22
410.33	229.52
410.70	229.76
411.08	230.05
411.45	230.36
411.82	230.65
412.20	231.00
412.57	231.41
412.95	231.70
413.32	232.10
413.69	232.52
414.07	233.00
414.44	233.45
414.82	233.94
415.19	234.53
415.56	235.08
415.94	235.62
416.31	236.27
416.68	236.90
417.06	237.64
417.43	238.34
417.81	239.12
418.18	239.88
418.55	240.73
418.93	241.57
419.30	242.47
419.67	243.41
420.04	244.35
420.42	245.37
420.79	246.57
421.16	247.74
421.54	248.90
421.91	250.14
422.28	251.41
422.66	252.73
423.03	254.05
423.40	255.35
423.77	256.77
424.15	258.17
424.52	259.66
424.89	261.25
425.26	262.82
425.64	264.26
426.01	265.90
426.38	267.56
426.75	269.28
427.13	271.04
427.50	272.89
427.87	274.80
428.24	276.69
428.61	278.47
428.99	280.43
429.36	282.56
429.73	284.58
430.10	286.65
430.47	288.74
430.85	290.83
431.22	293.12
431.59	295.52
431.96	297.80
432.33	300.31
432.70	302.69
433.08	305.55
433.45	308.20
433.82	310.76
434.19	313.67
434.56	316.50
434.93	319.14
435.30	321.75
435.68	324.63
436.05	327.46
436.42	330.29
436.79	332.81
437.16	335.55
437.53	338.43
437.90	341.27
438.27	344.05
438.64	346.95
439.01	349.60
439.38	351.88
439.75	354.05
440.13	356.58
440.50	358.93
440.87	360.75
441.24	362.76
441.61	365.08
441.98	366.61
442.35	368.42
442.72	370.29
443.09	372.18
443.46	373.25
443.83	373.82
444.20	374.30
444.57	375.17
444.94	375.47
445.31	375.83
445.68	376.18
446.05	376.29
446.42	375.90
446.79	375.46
447.16	375.02
447.53	374.77
447.90	373.62
448.27	372.48
448.64	370.97
449.01	369.84
449.37	367.76
449.74	365.84
450.11	363.60
450.48	361.14
450.85	358.56
451.22	356.43
451.59	354.46
451.96	352.55
452.33	349.94
452.70	347.57
453.07	344.73
453.43	341.83
453.80	339.03
454.17	336.33
454.54	333.77
454.91	331.04
455.28	328.30
455.65	325.79
456.02	323.33
456.38	321.10
456.75	318.41
457.12	316.17
457.49	313.94
457.86	311.74
458.23	309.89
458.59	307.83
458.96	305.68
459.33	303.77
459.70	301.88
460.07	300.38
460.43	298.64
460.80	297.00
461.17	295.50
461.54	294.01
461.91	292.61
462.27	291.15
462.64	289.84
463.01	288.47
463.38	287.15
463.74	285.75
464.11	284.54
464.48	283.47
464.85	282.34
465.21	281.50
465.58	280.55
465.95	279.44
466.32	278.54
466.68	277.65
467.05	276.75
467.42	275.84
467.78	274.87
468.15	273.95
468.52	273.29
468.88	272.46
469.25	271.66
469.62	270.99
469.98	270.30
470.35	269.70
470.72	269.07
471.08	268.41
471.45	267.88
471.82	267.36
472.18	266.76
472.55	266.30
472.92	265.77
473.28	265.29
473.65	264.81
474.02	264.30
474.38	263.90
474.75	263.61
475.11	263.31
475.48	263.05
475.85	262.84
476.21	262.59
476.58	262.42
476.94	262.25
477.31	262.06
477.67	261.92
478.04	261.78
478.41	261.75
478.77	261.79
479.14	261.75
479.50	261.79
479.87	261.88
480.23	261.95
480.60	262.00
480.96	262.14
481.33	262.36
481.69	262.61
482.06	262.83
482.42	263.01
482.79	263.22
483.15	263.55
483.52	263.94
483.88	264.31
484.25	264.67
484.61	265.13
484.98	265.60
485.34	266.15
485.71	266.78
486.07	267.40
486.44	267.98
486.80	268.68
487.17	269.42
487.53	270.23
487.90	271.10
488.26	272.05
488.62	273.04
488.99	274.03
489.35	275.05
489.72	276.19
490.08	277.39
490.44	278.64
490.81	279.93
491.17	281.25
491.54	282.73
491.90	284.27
492.26	285.90
492.63	287.67
492.99	289.46
493.36	291.34
493.72	293.38
494.08	295.52
494.45	297.77
494.81	300.13
495.17	302.56
495.54	305.11
495.90	307.78
496.26	310.57
496.63	313.54
496.99	316.62
497.35	319.84
497.72	323.20
498.08	326.71
498.44	330.44
498.80	334.40
499.17	338.41
499.53	342.56
499.89	346.91
500.26	351.41
500.62	356.02
500.98	360.99
501.34	366.00
501.71	371.28
502.07	376.68
502.43	382.26
502.79	388.04
503.16	394.13
503.52	400.36
503.88	406.72
504.24	413.27
504.60	420.08
504.97	427.17
505.33	434.45
505.69	442.08
506.05	449.74
506.41	457.56
506.78	465.67
507.14	474.03
507.50	482.65
507.86	491.54
508.22	500.67
508.59	509.75
508.95	519.26
509.31	528.95
509.67	538.97
510.03	549.17
510.39	559.64
510.75	570.23
511.12	580.96
511.48	592.07
511.84	603.36
512.20	614.77
512.56	626.57
512.92	638.61
513.28	650.77
513.64	663.14
514.00	675.65
514.37	688.41
514.73	701.31
515.09	714.19
515.45	727.26
515.81	740.64
516.17	754.40
516.53	768.35
516.89	782.36
517.25	796.22
517.61	810.40
517.97	824.60
518.33	838.83
518.69	853.34
519.05	868.13
519.41	883.11
519.77	898.36
520.13	913.56
520.49	928.65
520.85	943.73
521.21	959.02
521.57	974.95
521.93	990.45
522.29	1006.51
522.65	1022.49
523.01	1038.37
523.37	1054.11
523.73	1069.97
524.09	1085.72
524.45	1101.66
524.81	1117.94
525.17	1134.41
525.53	1150.92
525.89	1167.53
526.25	1184.15
526.61	1200.19
526.97	1216.58
527.33	1232.79
527.68	1248.97
528.04	1265.10
528.40	1281.38
528.76	1298.23
529.12	1314.52
529.48	1331.06
529.84	1346.73
530.20	1362.97
530.56	1379.57
530.91	1396.65
531.27	1413.12
531.63	1429.37
531.99	1445.61
532.35	1461.42
532.71	1476.95
533.07	1492.97
533.42	1508.58
533.78	1524.34
534.14	1540.25
534.50	1555.31
534.86	1570.80
535.21	1585.78
535.57	1601.41
535.93	1616.64
536.29	1631.10
536.65	1645.87
537.00	1660.28
537.36	1675.30
537.72	1689.61
538.08	1703.86
538.44	1717.35
538.79	1730.95
539.15	1744.08
539.51	1757.48
539.87	1771.55
540.22	1785.02
540.58	1798.32
540.94	1811.30
541.29	1823.81
541.65	1836.17
542.01	1849.24
542.37	1861.41
542.72	1873.50
543.08	1885.12
543.44	1897.19
543.79	1908.27
544.15	1919.04
544.51	1930.47
544.87	1941.37
545.22	1952.10
545.58	1962.31
545.94	1972.05
546.29	1981.78
546.65	1991.71
547.01	2001.00
547.36	2009.71
547.72	2018.24
548.07	2026.33
548.43	2034.52
548.79	2042.44
549.14	2050.19
549.50	2057.36
549.86	2065.06
550.21	2072.47
550.57	2079.80
550.92	2086.51
551.28	2093.62
551.64	2100.86
551.99	2107.34
552.35	2113.43
552.70	2119.65
553.06	2125.70
553.41	2132.07
553.77	2138.20
554.13	2144.34
554.48	2150.61
554.84	2156.24
555.19	2161.51
555.55	2166.72
555.90	2171.29
556.26	2176.67
556.61	2181.51
556.97	2186.11
557.32	2190.31
557.68	2194.54
558.03	2198.72
558.39	2202.60
558.74	2207.38
559.10	2211.32
559.45	2215.19
559.81	2219.66
560.16	2223.62
560.52	2227.01
560.87	2230.60
561.23	2233.44
561.58	2236.47
561.94	2239.12
562.29	2241.60
562.64	2244.69
563.00	2247.47
563.35	2251.16
563.71	2254.32
564.06	2257.52
564.42	2260.50
564.77	2263.32
565.12	2266.07
565.48	2268.43
565.83	2270.53
566.19	2272.22
566.54	2273.31
566.89	2274.86
567.25	2275.85
567.60	2277.32
567.96	2279.20
568.31	2280.27
568.66	2281.66
569.02	2282.52
569.37	2283.20
569.72	2284.36
570.08	2284.74
570.43	2285.02
570.78	2284.69
571.14	2283.43
571.49	2282.47
571.84	2282.34
572.20	2281.53
572.55	2280.70
572.90	2279.26
573.26	2278.28
573.61	2276.57
573.96	2275.18
574.31	2272.38
574.67	2269.63
575.02	2266.22
575.37	2263.12
575.72	2259.63
576.08	2256.40
576.43	2253.30
576.78	2249.87
577.13	2246.66
577.49	2243.55
577.84	2240.44
578.19	2236.93
578.54	2233.49
578.90	2229.63
579.25	2224.45
579.60	2219.76
579.95	2214.94
580.30	2210.12
580.66	2205.21
581.01	2200.59
581.36	2195.93
581.71	2192.16
582.06	2188.00
582.42	2184.08
582.77	2179.11
583.12	2174.84
583.47	2170.70
583.82	2166.03
584.17	2161.13
584.53	2156.00
584.88	2150.80
585.23	2145.21
585.58	2140.01
585.93	2134.60
586.28	2129.85
586.63	2125.02
586.98	2120.07
587.34	2115.46
587.69	2110.80
588.04	2105.76
588.39	2100.33
588.74	2093.91
589.09	2087.80
589.44	2081.22
589.79	2075.00
590.14	2069.50
590.49	2062.98
590.84	2056.38
591.19	2050.63
591.54	2044.27
591.89	2037.21
592.25	2030.76
592.60	2023.70
592.95	2016.44
593.30	2009.50
593.65	2002.16
594.00	1995.27
594.35	1988.16
594.70	1980.18
595.05	1973.41
595.40	1966.21
595.75	1958.85
596.10	1952.99
596.45	1946.54
596.80	1940.57
597.15	1934.17
597.50	1927.50
597.85	1921.19
598.19	1914.89
598.54	1907.92
598.89	1901.45
599.24	1895.65
599.59	1889.25
599.94	1883.10
600.29	1876.65
600.64	1870.03
600.99	1862.74
601.34	1856.03
601.69	1849.12
602.04	1842.47
602.39	1835.04
602.74	1828.17
603.08	1821.49
603.43	1814.82
603.78	1807.57
604.13	1800.24
604.48	1793.22
604.83	1786.17
605.18	1779.38
605.53	1771.52
605.87	1763.60
606.22	1756.21
606.57	1748.15
606.92	1740.43
607.27	1733.40
607.62	1726.82
607.96	1719.67
608.31	1713.26
608.66	1705.66
609.01	1698.33
609.36	1690.83
609.70	1682.87
610.05	1674.93
610.40	1667.36
610.75	1658.96
611.10	1651.24
611.44	1642.89
611.79	1634.75
612.14	1626.11
612.49	1617.07
612.83	1608.64
613.18	1600.42
613.53	1592.41
613.88	1583.93
614.22	1575.73
614.57	1567.04
614.92	1558.90
615.27	1551.42
615.61	1543.07
615.96	1535.02
616.31	1527.22
616.65	1519.99
617.00	1512.38
617.35	1504.72
617.70	1496.44
618.04	1488.03
618.39	1479.83
618.74	1472.33
619.08	1463.95
619.43	1456.37
619.78	1449.30
620.12	1442.23
620.47	1434.74
620.82	1426.45
621.16	1418.93
621.51	1411.33
621.85	1403.67
622.20	1395.18
622.55	1386.77
622.89	1378.80
623.24	1371.17
623.59	1363.70
623.93	1356.02
624.28	1348.76
624.62	1341.27
624.97	1333.99
625.32	1327.00
625.66	1319.85
626.01	1312.61
626.35	1305.38
626.70	1297.63
627.04	1289.97
627.39	1282.02
627.73	1274.60
628.08	1267.70
628.43	1260.67
628.77	1253.33
629.12	1245.82
629.46	1238.47
629.81	1230.84
630.15	1223.51
630.50	1216.11
630.84	1207.89
631.19	1199.81
631.53	1192.22
631.88	1184.50
632.22	1176.89
632.57	1169.73
632.91	1162.26
633.26	1154.86
633.60	1147.40
633.95	1140.18
634.29	1133.01
634.64	1126.20
634.98	1118.84
635.32	1111.68
635.67	1104.79
636.01	1098.07
636.36	1091.28
636.70	1084.78
637.05	1078.30
637.39	1071.94
637.73	1065.46
638.08	1059.66
638.42	1053.79
638.77	1047.41
639.11	1040.88
639.45	1034.44
639.80	1027.67
640.14	1021.23
640.49	1014.65
640.83	1008.31
641.17	1002.09
641.52	995.80
641.86	989.31
642.20	983.39
642.55	976.99
642.89	970.61
643.23	963.98
643.58	958.11
643.92	951.96
644.26	945.97
644.61	939.81
644.95	933.73
645.29	927.16
645.64	920.39
645.98	914.01
646.32	908.02
646.66	901.95
647.01	896.10
647.35	890.34
647.69	884.36
648.04	878.71
648.38	872.96
648.72	866.98
649.06	860.99
649.41	855.04
649.75	849.20
650.09	843.28
650.43	837.59
650.78	831.49
651.12	825.47
651.46	819.68
651.80	814.10
652.14	808.67
652.49	803.31
652.83	798.15
653.17	792.52
653.51	786.97
653.85	781.57
654.20	775.99
654.54	770.03
654.88	764.36
655.22	758.52
655.56	752.79
655.90	747.22
656.25	741.99
656.59	736.64
656.93	731.52
657.27	726.35
657.61	720.87
657.95	715.70
658.29	710.59
658.64	705.29
658.98	699.81
659.32	694.31
659.66	688.98
660.00	683.66
660.34	678.70
660.68	673.75
661.02	668.72
661.36	664.02
661.70	659.54
662.05	655.21
662.39	650.92
662.73	646.48
663.07	642.15
663.41	637.74
663.75	633.28
664.09	628.72
664.43	624.31
664.77	620.24
665.11	616.02
665.45	611.88
665.79	607.87
666.13	603.82
666.47	599.68
666.81	595.66
667.15	591.50
667.49	587.55
667.83	583.66
668.17	579.71
668.51	575.63
668.85	571.52
669.19	567.56
669.53	563.72
669.87	559.87
670.21	556.14
670.55	552.48
670.89	549.00
671.23	545.60
671.57	542.02
671.91	538.42
672.25	534.86
672.58	531.32
672.92	527.85
673.26	524.68
673.60	521.54
673.94	518.37
674.28	515.42
674.62	512.48
674.96	509.39
675.30	506.45
675.64	503.56
675.97	500.76
676.31	497.90
676.65	494.92
676.99	492.18
677.33	489.32
677.67	486.52
678.01	483.55
678.34	480.50
678.68	477.64
679.02	474.88
679.36	472.12
679.70	469.45
680.04	466.70
680.37	463.77
680.71	460.97
681.05	458.32
681.39	455.56
681.73	452.90
682.06	450.36
682.40	447.87
682.74	445.28
683.08	442.65
683.42	440.10
683.75	437.56
684.09	434.95
684.43	432.45
684.77	429.91
685.10	427.52
685.44	425.21
685.78	422.88
686.12	420.54
686.45	418.22
686.79	415.95
687.13	413.75
687.46	411.56
687.80	409.36
688.14	407.13
688.48	405.12
688.81	402.89
689.15	400.77
689.49	398.51
689.82	396.45
690.16	394.39
690.50	392.39
690.83	390.45
691.17	388.44
691.51	386.50
691.84	384.69
692.18	382.75
692.52	380.81
692.85	378.91
693.19	377.02
693.52	375.17
693.86	373.34
694.20	371.50
694.53	369.75
694.87	367.91
695.21	366.11
695.54	364.26
695.88	362.51
696.21	360.77
696.55	359.14
696.88	357.42
697.22	355.75
697.56	354.12
697.89	352.48
698.23	350.90
698.56	349.30
698.90	347.74
699.23	346.10
699.57	344.53
699.90	342.97
700.24	341.44
700.58	339.92
700.91	338.42
701.25	336.97
701.58	335.55
701.92	334.18
702.25	332.79
702.59	331.44
702.92	330.09
703.26	328.77
703.59	327.50
703.93	326.30
704.26	325.08
704.60	323.80
704.93	322.53
705.26	321.27
705.60	320.09
705.93	318.87
706.27	317.81
706.60	316.72
706.94	315.62
707.27	314.45
707.61	313.38
707.94	312.29
708.27	311.22
708.61	310.13
708.94	309.10
709.28	308.14
709.61	307.12
709.94	306.17
710.28	305.15
710.61	304.13
710.95	303.04
711.28	302.09
711.61	301.12
711.95	300.19
712.28	299.25
712.61	298.27
712.95	297.32
713.28	296.42
713.61	295.53
713.95	294.68
714.28	293.89
714.61	293.02
714.95	292.19
715.28	291.35
715.61	290.49
715.95	289.64
716.28	288.75
716.61	287.91
716.95	287.05
717.28	286.25
717.61	285.47
717.94	284.74
718.28	283.92
718.61	283.13
718.94	282.42
719.27	281.75
719.61	281.05
719.94	280.35
720.27	279.61
720.60	278.95
720.94	278.29
721.27	277.65
721.60	277.05
721.93	276.46
722.27	275.86
722.60	275.32
722.93	274.74
723.26	274.19
723.59	273.64
723.93	273.07
724.26	272.48
724.59	271.89
724.92	271.33
725.25	270.83
725.59	270.32
725.92	269.82
726.25	269.30
726.58	268.78
726.91	268.30
727.24	267.80
727.57	267.31
727.91	266.79
728.24	266.27
728.57	265.75
728.90	265.25
729.23	264.76
729.56	264.30
729.89	263.83
730.22	263.33
730.55	262.84
730.89	262.39
731.22	261.98
731.55	261.58
731.88	261.16
732.21	260.74
732.54	260.31
732.87	259.84
733.20	259.43
733.53	259.06
733.86	258.67
734.19	258.28
734.52	257.86
734.85	257.58
735.18	257.19
735.51	256.84
735.84	256.46
736.17	256.12
736.50	255.72
736.83	255.52
737.16	255.17
737.49	254.86
737.82	254.52
738.15	254.19
738.48	253.85
738.81	253.52
739.14	253.16
739.47	252.82
739.80	252.52
740.13	252.19
740.46	251.87
740.79	251.52
741.12	251.24
741.45	250.94
741.78	250.57
742.11	250.29
742.44	249.97
742.77	249.69
743.10	249.39
743.43	249.08
743.75	248.66
744.08	248.54
744.41	248.24
744.74	247.98
745.07	247.69
745.40	247.47
745.73	247.26
746.06	247.01
746.39	246.76
746.71	246.52
747.04	246.30
747.37	246.05
747.70	245.86
748.03	245.59
748.36	245.35
748.68	245.13
749.01	244.85
749.34	244.65
749.67	244.39
750.00	244.18
750.33	244.03
750.65	243.81
750.98	243.47
751.31	243.24
751.64	243.03
751.97	242.89
752.29	242.65
752.62	242.36
752.95	242.15
753.28	241.95
753.60	241.70
753.93	241.48
754.26	241.31
754.59	241.05
754.91	240.87
755.24	240.69
755.57	240.45
755.90	240.31
756.22	240.07
756.55	239.89
756.88	239.67
757.20	239.42
757.53	239.23
757.86	239.04
758.19	238.93
758.51	238.75
758.84	238.53
759.17	238.34
759.49	238.20
759.82	238.03
760.15	237.86
760.47	237.74
760.80	237.59
761.13	237.41
761.45	237.28
761.78	237.12
762.11	236.97
762.43	236.86
762.76	236.72
763.08	236.59
763.41	236.44
763.74	236.35
764.06	236.22
764.39	236.08
764.71	235.92
765.04	235.77
765.37	235.65
765.69	235.51
766.02	235.36
766.34	235.23
766.67	235.12
767.00	235.03
767.32	234.98
767.65	234.89
767.97	234.81
768.30	234.70
768.62	234.59
768.95	234.45
769.27	234.34
769.60	234.24
769.92	234.10
770.25	233.97
770.57	233.82
770.90	233.69
771.22	233.58
771.55	233.48
771.87	233.39
772.20	233.24
772.52	233.22
772.85	233.25
773.17	233.16
773.50	233.03
773.82	232.91
774.15	232.75
774.47	232.63
774.80	232.50
775.12	232.43
775.45	232.36
775.77	232.28
776.09	232.19
776.42	232.09
776.74	232.07
777.07	232.01
777.39	231.93
777.72	231.89
778.04	231.84
778.36	231.78
778.69	231.71
779.01	231.68
779.33	231.53
779.66	231.36
779.98	231.30
780.31	231.27
780.63	231.28
780.95	231.22
781.28	231.17
781.60	231.11
781.92	231.01
782.25	230.93
782.57	230.87
782.89	230.85
783.22	230.78
783.54	230.71
783.86	230.69
784.19	230.64
784.51	230.61
784.83	230.55
785.16	230.52
785.48	230.48
785.80	230.46
786.12	230.42
786.45	230.38
786.77	230.35
787.09	230.34
787.42	230.25
787.74	230.23
788.06	230.18
788.38	230.13
788.71	230.10
789.03	230.10
789.35	230.12
789.67	230.05
789.99	230.01
790.32	229.96
790.64	229.91
790.96	229.95
791.28	229.86
791.61	229.80
791.93	229.76
792.25	229.70
792.57	229.72
792.89	229.67
793.21	229.65
793.54	229.58
793.86	229.51
794.18	229.45
794.50	229.40
794.82	229.37
795.14	229.37
795.47	229.37
795.79	229.32
796.11	229.22
796.43	229.16
796.75	229.14
797.07	229.10
797.39	229.04
797.71	228.96
798.04	228.95
798.36	228.93
798.68	228.90
799.00	228.87
799.32	228.78
799.64	228.76
799.96	228.72
800.28	228.70
800.60	228.64
800.92	228.66
801.24	228.61
801.56	228.56
801.89	228.54
802.21	228.50
802.53	228.45
802.85	228.45
803.17	228.48
803.49	228.42
803.81	228.42
804.13	228.44
804.45	228.34
804.77	228.32
805.09	228.28
805.41	228.22
805.73	228.18
806.05	228.11
806.37	228.07
806.69	228.02
807.01	227.98
807.33	227.95
807.65	227.83
807.97	227.85
808.28	227.82
808.60	227.75
808.92	227.69
809.24	227.72
809.56	227.69
809.88	227.62
810.20	227.59
810.52	227.56
810.84	227.49
811.16	227.49
811.48	227.46
811.80	227.46
812.12	227.45
812.43	227.45
812.75	227.44
813.07	227.42
813.39	227.42
813.71	227.41
814.03	227.39
814.35	227.40
814.67	227.33
814.98	227.26
815.30	227.25
815.62	227.22
815.94	227.14
816.26	227.13
816.58	227.11
816.89	227.11
817.21	227.04
817.53	227.04
817.85	227.00
818.17	226.97
818.48	226.95
818.80	226.94
819.12	226.91
819.44	226.86
819.76	226.81
820.07	226.80
820.39	226.78
820.71	226.79
821.03	226.80
821.34	226.80
821.66	226.81
821.98	226.81
822.30	226.80
822.61	226.86
822.93	226.80
823.25	226.76
823.57	226.74
823.88	226.78
824.20	226.74
824.52	226.75
824.83	226.72
825.15	226.67
825.47	226.66
825.79	226.64
826.10	226.65
826.42	226.67
826.74	226.66
827.05	226.66
827.37	226.64
827.69	226.61
828.00	226.58
828.32	226.58
828.64	226.57
828.95	226.61
829.27	226.57
829.58	226.58
829.90	226.63
830.22	226.62
830.53	226.59
830.85	226.59
831.17	226.56
831.48	226.56
831.80	226.57
832.11	226.55
832.43	226.54
832.75	226.55
833.06	226.61
833.38	226.53
833.69	226.50
834.01	226.50
834.32	226.50
834.64	226.50
834.96	226.49
835.27	226.46
835.59	226.46
835.90	226.46
836.22	226.45
836.53	226.41
836.85	226.40
837.16	226.46
837.48	226.45
837.79	226.49
838.11	226.49
838.42	226.49
838.74	226.50
839.05	226.47
839.37	226.45
839.68	226.36
840.00	226.38
840.31	226.38
840.63	226.39
840.94	226.34
841.26	226.34
841.57	226.32
841.88	226.33
842.20	226.27
842.51	226.20
842.83	226.20
843.14	226.25
843.46	226.28
843.77	226.22
844.08	226.21
844.40	226.16
844.71	226.12
845.03	226.13
845.34	226.11
845.65	226.09
845.97	226.07
846.28	226.07
846.60	226.10
846.91	226.05
847.22	226.02
847.54	226.03
847.85	226.02
848.16	225.99
848.48	225.95
848.79	225.99
849.10	226.02
849.42	226.03
849.73	225.96
850.04	225.93
850.36	225.90
850.67	225.93
850.98	225.91
851.30	225.88
851.61	225.84
851.92	225.83
852.23	225.88
852.55	225.89
852.86	225.84
853.17	225.82
853.49	225.88
853.80	225.89
854.11	225.89
854.42	225.88
854.74	225.90
855.05	225.87
855.36	225.81
855.67	225.79
855.99	225.74
856.30	225.81
856.61	225.79
856.92	225.77
857.23	225.74
857.55	225.76
857.86	225.76
858.17	225.80
858.48	225.78
858.79	225.73
859.11	225.70
859.42	225.72
859.73	225.71
860.04	225.66
860.35	225.66
860.66	225.61
860.98	225.61
861.29	225.60
861.60	225.59
861.91	225.63
862.22	225.60
862.53	225.58
862.84	225.49
863.16	225.51
863.47	225.53
863.78	225.51
864.09	225.51
864.40	225.55
864.71	225.52
865.02	225.54
865.33	225.54
865.64	225.55
865.95	225.55
866.27	225.61
866.58	225.62
866.89	225.61
867.20	225.65
867.51	225.62
867.82	225.60
868.13	225.64
868.44	225.64
868.75	225.64
869.06	225.68
869.37	225.70
869.68	225.65
869.99	225.65
870.30	225.68
870.61	225.68
870.92	225.64
871.23	225.64
871.54	225.69
871.85	225.73
872.16	225.74
872.47	225.73
872.78	225.71
873.09	225.73
873.40	225.72
873.71	225.74
874.02	225.76
874.33	225.78
874.64	225.77
874.95	225.78
875.26	225.80
875.56	225.76
875.87	225.77
876.18	225.80
876.49	225.92
876.80	225.92
877.11	225.93
877.42	225.95
877.73	225.96
878.04	225.92
878.35	225.92
878.66	225.92
878.96	225.92
879.27	225.92
879.58	225.90
879.89	225.90
880.20	225.92
880.51	225.93
880.82	225.94
881.12	225.95
881.43	225.94
881.74	225.92
882.05	225.91
882.36	225.90
882.67	225.94
882.97	225.77
883.28	225.77
883.59	225.75
883.90	225.78
884.21	225.79
884.51	225.77
884.82	225.74
885.13	225.74
885.44	225.73
885.74	225.69
886.05	225.68
886.36	225.65
886.67	225.60
886.98	225.64
887.28	225.63
887.59	225.63
887.90	225.60
888.20	225.61
888.51	225.64
888.82	225.61
889.13	225.59
889.43	225.68
889.74	225.65
890.05	225.62
890.35	225.59
890.66	225.58
890.97	225.58
891.28	225.56
891.58	225.56
891.89	225.57
892.20	225.60
892.50	225.59
892.81	225.58
893.12	225.57
893.42	225.50
893.73	225.53
894.04	225.50
894.34	225.51
894.65	225.48
894.95	225.46
895.26	225.46
895.57	225.47
895.87	225.38
896.18	225.42
896.48	225.43
896.79	225.41
897.10	225.40
897.40	225.36
897.71	225.38
898.01	225.36
898.32	225.35
898.63	225.30
898.93	225.30
899.24	225.33
899.54	225.34
899.85	225.36
900.15	225.31
900.46	225.32
900.76	225.33
901.07	225.33
901.38	225.36
901.68	225.36
901.99	225.35
902.29	225.34
902.60	225.31
902.90	225.26
903.21	225.28
903.51	225.24
903.82	225.30
904.12	225.29
904.43	225.29
904.73	225.31
905.03	225.34
905.34	225.42
905.64	225.40
905.95	225.42
906.25	225.44
906.56	225.46
906.86	225.49
907.17	225.49
907.47	225.51
907.77	225.51
908.08	225.50
908.38	225.53
908.69	225.56
908.99	225.59
909.30	225.64
909.60	225.68
909.90	225.69
910.21	225.68
910.51	225.70
910.81	225.71
911.12	225.72
911.42	225.73
911.73	225.69
912.03	225.71
912.33	225.72
912.64	225.66
912.94	225.67
913.24	225.64
913.55	225.65
913.85	225.61
914.15	225.62
914.46	225.68
914.76	225.66
915.06	225.66
915.37	225.62
915.67	225.61
915.97	225.58
916.27	225.58
916.58	225.57
916.88	225.52
917.18	225.52
917.49	225.58
917.79	225.58
918.09	225.55
918.39	225.56
918.70	225.55
919.00	225.63
919.30	225.66
919.60	225.67
919.91	225.67
920.21	225.68
920.51	225.64
920.81	225.59
921.12	225.60
921.42	225.58
921.72	225.62
922.02	225.65
922.32	225.66
922.63	225.64
922.93	225.69
923.23	225.73
923.53	225.71
923.83	225.62
924.13	225.61
924.44	225.63
924.74	225.66
925.04	225.70
925.34	225.67
925.64	225.63
925.94	225.62
926.24	225.64
926.55	225.62
926.85	225.65
927.15	225.65
927.45	225.63
927.75	225.63
928.05	225.61
928.35	225.55
928.65	225.57
928.95	225.60
929.26	225.56
929.56	225.55
929.86	225.58
930.16	225.57
930.46	225.56
930.76	225.54
931.06	225.46
931.36	225.36
931.66	225.33
931.96	225.34
932.26	225.34
932.56	225.30
932.86	225.33
933.16	225.31
933.46	225.29
933.76	225.29
934.06	225.33
934.36	225.33
934.66	225.35
934.96	225.31
935.26	225.27
935.56	225.25
935.86	225.25
936.16	225.20
936.46	225.17
936.76	225.16
937.06	225.14
937.36	225.11
937.66	225.18
937.96	225.19
938.26	225.16
938.56	225.11
938.86	225.12
939.16	225.13
939.46	225.16
939.76	225.15
940.06	225.15
940.35	225.09
940.65	225.04
940.95	225.03
941.25	225.04
941.55	225.05
941.85	225.08
942.15	225.08
942.45	225.14
942.75	225.16
943.04	225.13
943.34	225.17
943.64	225.20
943.94	225.15
944.24	225.13
944.54	225.13
944.84	225.19
945.13	225.17
945.43	225.14
945.73	225.12
946.03	225.12
946.33	225.10
946.62	225.12
946.92	225.16
947.22	225.19
947.52	225.19
947.82	225.20
948.11	225.19
948.41	225.16
948.71	225.13
949.01	225.17
949.31	225.21
949.60	225.21
949.90	225.23
950.20	225.24
950.50	225.27
950.79	225.29
951.09	225.32
951.39	225.33
951.69	225.36
951.98	225.39
952.28	225.45
952.58	225.47
952.87	225.47
953.17	225.47
953.47	225.44
953.76	225.46
954.06	225.47
954.36	225.46
954.66	225.47
954.95	225.50
955.25	225.47
955.55	225.46
955.84	225.44
956.14	225.46
956.44	225.46
956.73	225.42
957.03	225.41
957.32	225.40
957.62	225.39
957.92	225.43
958.21	225.42
958.51	225.49
958.81	225.51
959.10	225.52
959.40	225.52
959.69	225.55
959.99	225.56
960.29	225.52
960.58	225.54
960.88	225.56
961.17	225.55
961.47	225.58
961.76	225.56
962.06	225.61
962.36	225.60
962.65	225.60
962.95	225.61
963.24	225.60
963.54	225.57
963.83	225.58
964.13	225.52
964.42	225.47
964.72	225.40
965.01	225.39
965.31	225.37
965.60	225.34
965.90	225.40
966.19	225.35
966.49	225.38
966.78	225.35
967.08	225.37
967.37	225.36
967.67	225.32
967.96	225.32
968.26	225.31
968.55	225.29
968.85	225.23
969.14	225.23
969.43	225.22
969.73	225.22
970.02	225.22
970.32	225.22
970.61	225.23
970.91	225.17
971.20	225.16
971.49	225.15
971.79	225.18
972.08	225.11
972.38	225.10
972.67	225.07
972.96	225.05
973.26	225.04
973.55	225.07
973.85	225.07
974.14	225.06
974.43	225.02
974.73	225.00
975.02	225.02
975.31	225.05
975.61	225.03
975.90	225.01
976.19	224.99
976.49	224.95
976.78	224.93
977.07	224.93
977.37	224.93
977.66	224.91
977.95	224.86
978.24	224.85
978.54	224.87
978.83	224.88
979.12	224.91
979.42	224.88
979.71	224.85
980.00	224.84
980.29	224.86
980.59	224.88
980.88	224.91
981.17	224.96
981.46	224.95
981.76	224.96
982.05	225.00
982.34	225.02
982.63	225.06
982.93	225.05
983.22	225.10
983.51	225.09
983.80	225.11
984.09	225.17
984.39	225.18
984.68	225.18
984.97	225.19
985.26	225.18
985.55	225.18
985.85	225.17
986.14	225.17
986.43	225.21
986.72	225.18
987.01	225.13
987.30	225.11
987.59	225.10
987.89	225.11
988.18	225.06
988.47	225.04
988.76	225.06
989.05	225.06
989.34	225.06
989.63	225.11
989.92	225.12
990.22	225.11
990.51	225.10
990.80	225.11
991.09	225.11
991.38	225.12
991.67	225.15
991.96	225.13
992.25	225.14
992.54	225.09
992.83	225.10
993.12	225.10
993.41	225.10
993.70	225.14
993.99	225.18
994.28	225.21
994.58	225.22
994.87	225.21
995.16	225.20
995.45	225.19
995.74	225.15
996.03	225.15
996.32	225.13
996.61	225.15
996.90	225.16
997.19	225.16
997.48	225.16
997.77	225.14
998.06	225.15
998.34	225.14
998.63	225.13
998.92	225.13
999.21	225.17
999.50	225.17
999.79	225.13
1000.08	225.10
1000.37	225.09
1000.66	225.11
1000.95	225.12
1001.24	225.11
1001.53	225.12
1001.82	225.09
1002.11	225.08
1002.40	225.08
1002.68	225.09
1002.97	225.15
1003.26	225.15
1003.55	225.10
1003.84	225.12
1004.13	225.15
1004.42	225.15
1004.71	225.17
1004.99	225.17
1005.28	225.17
1005.57	225.19
1005.86	225.19
1006.15	225.20
1006.44	225.19
1006.72	225.15
1007.01	225.13
1007.30	225.16
1007.59	225.15
1007.88	225.12
1008.17	225.09
1008.45	225.08
1008.74	225.02
1009.03	224.98
1009.32	224.96
1009.60	224.99
1009.89	224.96
1010.18	224.94
1010.47	224.95
1010.76	224.94
1011.04	224.96
1011.33	224.94
1011.62	224.94
1011.91	224.97
1012.19	224.94
1012.48	224.93
1012.77	224.97
1013.05	225.03
1013.34	225.05
1013.63	225.04
1013.92	225.07
1014.20	225.10
1014.49	225.10
1014.78	225.11
1015.06	225.09
1015.35	225.10
1015.64	225.09
1015.92	225.10
1016.21	225.11
1016.50	225.10
1016.78	225.12
1017.07	225.12
1017.36	225.13
1017.64	225.11
1017.93	225.10
1018.22	225.10
1018.50	225.11
1018.79	225.09
1019.08	225.01
1019.36	224.99
1019.65	224.98
1019.93	224.99
1020.22	224.99
1020.51	225.07
1020.79	225.08
1021.08	224.53
1021.36	224.99
1021.65	224.79
1021.94	224.73
1022.22	225.14
1022.51	224.82
1022.79	225.15
1023.08	224.95
1023.36	226.46
1023.65	224.89
>>>>>End Processed Spectral Data<<<<<
