SpectraSuite Data File
++++++++++++++++++++++++++++++++++++
Date: Fri Feb 01 18:10:39 EST 2013
User: group
Dark Spectrum Present: No
Reference Spectrum Present: No
Number of Sampled Component Spectra: 1
Spectrometers: USB2E7196
Integration Time (usec): 35000 (USB2E7196)
Spectra Averaged: 100 (USB2E7196)
Boxcar Smoothing: 10 (USB2E7196)
Correct for Electrical Dark: No (USB2E7196)
Strobe/Lamp Enabled: No (USB2E7196)
Correct for Detector Non-linearity: No (USB2E7196)
Correct for Stray Light: No (USB2E7196)
Number of Pixels in Processed Spectrum: 2048
>>>>>Begin Processed Spectral Data<<<<<
339.09	0.00
339.48	213.02
339.86	214.86
340.24	216.13
340.63	217.71
341.01	220.15
341.39	219.97
341.78	221.71
342.16	222.31
342.54	223.32
342.93	211.55
343.31	222.21
343.69	222.75
344.07	223.19
344.46	223.62
344.84	223.99
345.22	224.22
345.60	224.47
345.99	224.62
346.37	224.75
346.75	224.83
347.13	224.87
347.52	224.92
347.90	224.96
348.28	224.98
348.66	225.05
349.05	225.01
349.43	225.09
349.81	225.11
350.19	225.16
350.57	225.21
350.96	225.29
351.34	225.41
351.72	225.49
352.10	225.59
352.48	225.67
352.87	225.72
353.25	225.79
353.63	225.84
354.01	225.92
354.39	226.00
354.77	226.10
355.15	226.18
355.54	226.25
355.92	226.32
356.30	226.41
356.68	226.52
357.06	226.60
357.44	226.62
357.82	226.74
358.20	226.80
358.58	226.84
358.97	226.89
359.35	226.97
359.73	227.06
360.11	227.10
360.49	227.12
360.87	227.17
361.25	227.24
361.63	227.35
362.01	227.41
362.39	227.48
362.77	227.53
363.15	227.56
363.53	227.61
363.91	227.62
364.29	227.65
364.67	227.57
365.05	227.60
365.43	227.69
365.81	227.67
366.19	227.71
366.57	227.76
366.95	227.77
367.33	227.72
367.71	227.73
368.09	227.76
368.47	227.74
368.85	227.70
369.23	227.70
369.61	227.63
369.99	227.62
370.37	227.58
370.75	227.58
371.13	227.57
371.51	227.50
371.89	227.49
372.27	227.47
372.65	227.46
373.03	227.41
373.41	227.33
373.78	227.31
374.16	227.22
374.54	227.16
374.92	227.13
375.30	227.08
375.68	227.00
376.06	226.94
376.44	226.87
376.82	226.85
377.19	226.76
377.57	226.72
377.95	226.65
378.33	226.58
378.71	226.45
379.09	226.41
379.47	226.33
379.84	226.29
380.22	226.22
380.60	226.15
380.98	226.12
381.36	226.07
381.73	226.00
382.11	225.98
382.49	225.91
382.87	225.84
383.25	225.79
383.62	225.85
384.00	225.78
384.38	225.72
384.76	225.70
385.13	225.71
385.51	225.63
385.89	225.61
386.27	225.59
386.64	225.58
387.02	225.56
387.40	225.55
387.78	225.45
388.15	225.41
388.53	225.36
388.91	225.32
389.29	225.30
389.66	225.29
390.04	225.24
390.42	225.21
390.79	225.16
391.17	225.16
391.55	225.04
391.92	225.03
392.30	225.07
392.68	225.03
393.05	225.01
393.43	225.06
393.81	225.01
394.18	224.97
394.56	224.97
394.94	225.01
395.31	224.99
395.69	225.08
396.06	225.11
396.44	225.14
396.82	225.14
397.19	225.23
397.57	225.26
397.95	225.29
398.32	225.35
398.70	225.45
399.07	225.50
399.45	225.56
399.82	225.65
400.20	225.70
400.58	225.76
400.95	225.80
401.33	225.92
401.70	226.08
402.08	226.16
402.45	226.27
402.83	226.35
403.20	226.50
403.58	226.56
403.95	226.73
404.33	226.91
404.71	227.06
405.08	227.22
405.46	227.34
405.83	227.51
406.21	227.68
406.58	227.87
406.96	228.02
407.33	228.23
407.70	228.44
408.08	228.76
408.45	229.02
408.83	229.29
409.20	229.52
409.58	229.75
409.95	230.12
410.33	230.47
410.70	230.82
411.08	231.18
411.45	231.65
411.82	232.01
412.20	232.48
412.57	233.01
412.95	233.42
413.32	233.99
413.69	234.57
414.07	235.16
414.44	235.79
414.82	236.48
415.19	237.24
415.56	237.97
415.94	238.73
416.31	239.63
416.68	240.51
417.06	241.51
417.43	242.45
417.81	243.46
418.18	244.52
418.55	245.66
418.93	246.84
419.30	248.05
419.67	249.35
420.04	250.63
420.42	252.00
420.79	253.62
421.16	255.19
421.54	256.80
421.91	258.50
422.28	260.22
422.66	262.08
423.03	263.85
423.40	265.72
423.77	267.69
424.15	269.65
424.52	271.71
424.89	273.97
425.26	276.16
425.64	278.20
426.01	280.43
426.38	282.79
426.75	285.18
427.13	287.56
427.50	290.11
427.87	292.78
428.24	295.43
428.61	297.94
428.99	300.66
429.36	303.60
429.73	306.48
430.10	309.32
430.47	312.23
430.85	315.30
431.22	318.52
431.59	321.85
431.96	325.04
432.33	328.57
432.70	331.87
433.08	335.80
433.45	339.50
433.82	343.15
434.19	347.18
434.56	351.08
434.93	354.87
435.30	358.55
435.68	362.58
436.05	366.57
436.42	370.52
436.79	374.10
437.16	378.01
437.53	382.05
437.90	386.02
438.27	389.89
438.64	393.85
439.01	397.44
439.38	400.62
439.75	403.69
440.13	407.20
440.50	410.46
440.87	413.11
441.24	415.87
441.61	418.97
441.98	421.05
442.35	423.65
442.72	426.28
443.09	428.84
443.46	430.28
443.83	431.06
444.20	431.75
444.57	432.95
444.94	433.31
445.31	433.77
445.68	434.26
446.05	434.37
446.42	433.84
446.79	433.26
447.16	432.69
447.53	432.21
447.90	430.61
448.27	429.05
448.64	426.80
449.01	425.21
449.37	422.40
449.74	419.74
450.11	416.58
450.48	413.09
450.85	409.61
451.22	406.60
451.59	403.79
451.96	401.10
452.33	397.46
452.70	394.20
453.07	390.24
453.43	386.20
453.80	382.29
454.17	378.47
454.54	374.91
454.91	371.04
455.28	367.29
455.65	363.80
456.02	360.28
456.38	357.32
456.75	353.56
457.12	350.45
457.49	347.32
457.86	344.29
458.23	341.64
458.59	338.71
458.96	335.75
459.33	333.13
459.70	330.48
460.07	328.30
460.43	325.80
460.80	323.44
461.17	321.37
461.54	319.25
461.91	317.31
462.27	315.25
462.64	313.47
463.01	311.55
463.38	309.72
463.74	307.82
464.11	306.12
464.48	304.69
464.85	303.09
465.21	301.85
465.58	300.52
465.95	298.98
466.32	297.65
466.68	296.38
467.05	295.07
467.42	293.78
467.78	292.48
468.15	291.26
468.52	290.30
468.88	289.09
469.25	287.98
469.62	287.04
469.98	286.06
470.35	285.12
470.72	284.24
471.08	283.26
471.45	282.49
471.82	281.75
472.18	280.83
472.55	280.18
472.92	279.44
473.28	278.74
473.65	278.07
474.02	277.46
474.38	276.86
474.75	276.39
475.11	275.85
475.48	275.39
475.85	274.99
476.21	274.63
476.58	274.35
476.94	274.09
477.31	273.78
477.67	273.49
478.04	273.25
478.41	273.10
478.77	273.01
479.14	272.82
479.50	272.68
479.87	272.71
480.23	272.70
480.60	272.69
480.96	272.73
481.33	272.88
481.69	273.02
482.06	273.17
482.42	273.30
482.79	273.53
483.15	273.85
483.52	274.18
483.88	274.49
484.25	274.83
484.61	275.21
484.98	275.67
485.34	276.26
485.71	276.87
486.07	277.44
486.44	278.03
486.80	278.75
487.17	279.50
487.53	280.31
487.90	281.19
488.26	282.13
488.62	283.11
488.99	284.14
489.35	285.21
489.72	286.40
490.08	287.65
490.44	288.95
490.81	290.35
491.17	291.77
491.54	293.33
491.90	294.94
492.26	296.70
492.63	298.53
492.99	300.41
493.36	302.42
493.72	304.64
494.08	306.87
494.45	309.32
494.81	311.86
495.17	314.47
495.54	317.22
495.90	320.14
496.26	323.15
496.63	326.27
496.99	329.60
497.35	333.06
497.72	336.70
498.08	340.46
498.44	344.41
498.80	348.62
499.17	353.01
499.53	357.51
499.89	362.24
500.26	367.06
500.62	372.08
500.98	377.46
501.34	382.93
501.71	388.70
502.07	394.54
502.43	400.53
502.79	406.79
503.16	413.29
503.52	420.05
503.88	426.90
504.24	434.08
504.60	441.46
504.97	449.18
505.33	457.06
505.69	465.43
506.05	473.81
506.41	482.33
506.78	491.12
507.14	500.29
507.50	509.66
507.86	519.40
508.22	529.27
508.59	539.21
508.95	549.47
509.31	560.05
509.67	571.02
510.03	582.23
510.39	593.70
510.75	605.43
511.12	617.23
511.48	629.53
511.84	641.99
512.20	654.52
512.56	667.50
512.92	680.84
513.28	694.29
513.64	707.84
514.00	721.69
514.37	735.80
514.73	749.97
515.09	764.22
515.45	778.71
515.81	793.64
516.17	808.95
516.53	824.42
516.89	839.97
517.25	855.54
517.61	871.37
517.97	887.29
518.33	903.17
518.69	919.52
519.05	936.04
519.41	952.77
519.77	970.04
520.13	987.11
520.49	1004.08
520.85	1021.03
521.21	1038.54
521.57	1056.54
521.93	1074.04
522.29	1092.21
522.65	1110.27
523.01	1128.39
523.37	1146.30
523.73	1164.43
524.09	1182.51
524.45	1200.66
524.81	1219.29
525.17	1238.08
525.53	1256.92
525.89	1275.83
526.25	1294.79
526.61	1313.17
526.97	1332.04
527.33	1350.52
527.68	1369.27
528.04	1387.98
528.40	1406.62
528.76	1425.83
529.12	1444.66
529.48	1463.87
529.84	1482.20
530.20	1501.11
530.56	1520.27
530.91	1540.07
531.27	1559.21
531.63	1577.93
531.99	1596.95
532.35	1615.26
532.71	1633.54
533.07	1652.35
533.42	1670.77
533.78	1689.27
534.14	1708.12
534.50	1725.84
534.86	1744.25
535.21	1761.91
535.57	1780.17
535.93	1798.28
536.29	1815.54
536.65	1833.07
537.00	1850.25
537.36	1867.94
537.72	1884.98
538.08	1902.09
538.44	1918.31
538.79	1934.58
539.15	1950.62
539.51	1966.93
539.87	1983.97
540.22	2000.26
540.58	2016.51
540.94	2032.29
541.29	2047.66
541.65	2062.94
542.01	2078.77
542.37	2093.65
542.72	2108.62
543.08	2123.11
543.44	2138.35
543.79	2152.30
544.15	2165.86
544.51	2180.08
544.87	2193.69
545.22	2207.19
545.58	2219.97
545.94	2232.21
546.29	2244.56
546.65	2257.13
547.01	2268.90
547.36	2279.95
547.72	2290.77
548.07	2301.12
548.43	2311.64
548.79	2321.76
549.14	2331.53
549.50	2341.15
549.86	2351.09
550.21	2360.68
550.57	2370.03
550.92	2378.74
551.28	2388.00
551.64	2397.31
551.99	2405.97
552.35	2414.38
552.70	2422.64
553.06	2430.63
553.41	2439.11
553.77	2447.25
554.13	2455.47
554.48	2463.59
554.84	2471.20
555.19	2478.43
555.55	2485.55
555.90	2492.10
556.26	2499.27
556.61	2505.84
556.97	2512.06
557.32	2518.08
557.68	2523.98
558.03	2530.13
558.39	2535.52
558.74	2541.96
559.10	2547.61
559.45	2552.93
559.81	2558.80
560.16	2564.11
560.52	2569.12
560.87	2574.24
561.23	2578.50
561.58	2582.89
561.94	2587.11
562.29	2590.70
562.64	2595.08
563.00	2599.06
563.35	2603.97
563.71	2608.51
564.06	2613.23
564.42	2617.62
564.77	2621.57
565.12	2625.45
565.48	2628.73
565.83	2631.96
566.19	2634.48
566.54	2636.33
566.89	2638.81
567.25	2640.83
567.60	2643.35
567.96	2646.30
568.31	2648.09
568.66	2650.27
569.02	2651.88
569.37	2652.99
569.72	2655.01
570.08	2656.10
570.43	2656.84
570.78	2657.13
571.14	2656.17
571.49	2655.42
571.84	2655.67
572.20	2655.10
572.55	2654.56
572.90	2653.37
573.26	2652.52
573.61	2651.12
573.96	2649.99
574.31	2647.11
574.67	2644.23
575.02	2640.73
575.37	2637.30
575.72	2633.80
576.08	2630.41
576.43	2626.99
576.78	2623.37
577.13	2620.16
577.49	2616.83
577.84	2613.52
578.19	2609.52
578.54	2605.81
578.90	2601.49
579.25	2595.54
579.60	2590.29
579.95	2584.86
580.30	2579.48
580.66	2573.88
581.01	2568.33
581.36	2562.97
581.71	2558.60
582.06	2553.59
582.42	2548.81
582.77	2543.15
583.12	2538.02
583.47	2532.97
583.82	2527.70
584.17	2521.97
584.53	2515.90
584.88	2509.70
585.23	2503.32
585.58	2497.30
585.93	2491.17
586.28	2485.72
586.63	2480.16
586.98	2474.56
587.34	2469.22
587.69	2463.71
588.04	2457.79
588.39	2451.59
588.74	2444.15
589.09	2437.08
589.44	2429.40
589.79	2422.30
590.14	2415.80
590.49	2408.39
590.84	2401.00
591.19	2394.10
591.54	2386.67
591.89	2378.36
592.25	2370.83
592.60	2362.35
592.95	2353.55
593.30	2345.22
593.65	2336.51
594.00	2328.26
594.35	2319.72
594.70	2310.31
595.05	2302.15
595.40	2293.59
595.75	2284.90
596.10	2277.76
596.45	2270.00
596.80	2262.92
597.15	2255.38
597.50	2247.34
597.85	2239.63
598.19	2231.96
598.54	2223.84
598.89	2216.14
599.24	2209.10
599.59	2201.15
599.94	2193.89
600.29	2186.46
600.64	2178.50
600.99	2169.85
601.34	2161.82
601.69	2153.53
602.04	2145.59
602.39	2136.81
602.74	2128.84
603.08	2120.92
603.43	2112.80
603.78	2104.17
604.13	2095.57
604.48	2087.05
604.83	2078.76
605.18	2070.72
605.53	2061.31
605.87	2051.60
606.22	2042.87
606.57	2033.21
606.92	2024.22
607.27	2015.75
607.62	2007.74
607.96	1999.36
608.31	1991.38
608.66	1982.46
609.01	1973.63
609.36	1964.67
609.70	1955.13
610.05	1945.50
610.40	1936.31
610.75	1926.51
611.10	1917.34
611.44	1907.22
611.79	1897.43
612.14	1886.99
612.49	1875.94
612.83	1865.76
613.18	1855.98
613.53	1846.24
613.88	1836.22
614.22	1826.37
614.57	1815.95
614.92	1806.15
615.27	1797.05
615.61	1787.20
615.96	1777.54
616.31	1768.27
616.65	1759.28
617.00	1750.15
617.35	1740.88
617.70	1730.99
618.04	1720.88
618.39	1710.89
618.74	1701.85
619.08	1692.02
619.43	1682.98
619.78	1674.53
620.12	1665.93
620.47	1656.82
620.82	1646.87
621.16	1637.84
621.51	1628.60
621.85	1619.43
622.20	1609.24
622.55	1599.02
622.89	1589.53
623.24	1580.15
623.59	1571.23
623.93	1562.17
624.28	1553.47
624.62	1544.42
624.97	1535.70
625.32	1527.43
625.66	1518.93
626.01	1510.20
626.35	1501.39
626.70	1492.00
627.04	1482.78
627.39	1473.43
627.73	1464.63
628.08	1456.47
628.43	1447.78
628.77	1439.04
629.12	1430.00
629.46	1421.43
629.81	1412.46
630.15	1403.79
630.50	1395.05
630.84	1385.26
631.19	1375.67
631.53	1366.61
631.88	1357.54
632.22	1348.35
632.57	1339.60
632.91	1330.59
633.26	1321.88
633.60	1312.90
633.95	1304.29
634.29	1295.82
634.64	1287.75
634.98	1278.86
635.32	1270.30
635.67	1262.31
636.01	1254.44
636.36	1246.36
636.70	1238.42
637.05	1230.52
637.39	1222.77
637.73	1214.92
638.08	1207.85
638.42	1200.79
638.77	1193.13
639.11	1185.31
639.45	1177.65
639.80	1169.63
640.14	1162.02
640.49	1154.18
640.83	1146.66
641.17	1139.49
641.52	1132.02
641.86	1124.33
642.20	1117.40
642.55	1109.81
642.89	1102.23
643.23	1094.31
643.58	1087.46
643.92	1080.08
644.26	1073.12
644.61	1065.85
644.95	1058.85
645.29	1051.05
645.64	1042.96
645.98	1035.49
646.32	1028.43
646.66	1021.35
647.01	1014.53
647.35	1007.79
647.69	1000.76
648.04	994.17
648.38	987.18
648.72	980.11
649.06	973.02
649.41	966.01
649.75	959.07
650.09	952.04
650.43	945.23
650.78	937.92
651.12	930.91
651.46	924.05
651.80	917.39
652.14	910.88
652.49	904.59
652.83	898.56
653.17	891.89
653.51	885.19
653.85	878.76
654.20	872.12
654.54	865.04
654.88	858.25
655.22	851.26
655.56	844.49
655.90	837.90
656.25	831.63
656.59	825.40
656.93	819.34
657.27	813.24
657.61	806.77
657.95	800.75
658.29	794.70
658.64	788.39
658.98	782.07
659.32	775.59
659.66	769.43
660.00	763.18
660.34	757.31
660.68	751.47
661.02	745.62
661.36	740.02
661.70	734.77
662.05	729.67
662.39	724.66
662.73	719.35
663.07	714.24
663.41	709.03
663.75	703.73
664.09	698.33
664.43	693.06
664.77	688.31
665.11	683.27
665.45	678.40
665.79	673.65
666.13	668.80
666.47	663.99
666.81	659.15
667.15	654.33
667.49	649.71
667.83	645.22
668.17	640.53
668.51	635.82
668.85	631.00
669.19	626.45
669.53	621.94
669.87	617.42
670.21	613.05
670.55	608.73
670.89	604.61
671.23	600.59
671.57	596.47
671.91	592.34
672.25	588.20
672.58	584.15
672.92	580.14
673.26	576.39
673.60	572.69
673.94	568.97
674.28	565.46
674.62	561.98
674.96	558.37
675.30	554.96
675.64	551.53
675.97	548.24
676.31	544.84
676.65	541.42
676.99	538.27
677.33	534.95
677.67	531.64
678.01	528.13
678.34	524.65
678.68	521.22
679.02	517.90
679.36	514.63
679.70	511.45
680.04	508.15
680.37	504.77
680.71	501.47
681.05	498.39
681.39	495.20
681.73	492.12
682.06	489.13
682.40	486.17
682.74	483.12
683.08	480.16
683.42	477.12
683.75	474.17
684.09	471.11
684.43	468.16
684.77	465.28
685.10	462.48
685.44	459.73
685.78	457.04
686.12	454.36
686.45	451.70
686.79	448.98
687.13	446.43
687.46	443.90
687.80	441.32
688.14	438.69
688.48	436.30
688.81	433.63
689.15	431.08
689.49	428.52
689.82	426.07
690.16	423.54
690.50	421.23
690.83	418.93
691.17	416.59
691.51	414.38
691.84	412.24
692.18	410.02
692.52	407.71
692.85	405.44
693.19	403.22
693.52	401.04
693.86	398.84
694.20	396.71
694.53	394.57
694.87	392.39
695.21	390.27
695.54	388.10
695.88	386.01
696.21	383.97
696.55	382.02
696.88	380.02
697.22	378.04
697.56	376.12
697.89	374.16
698.23	372.29
698.56	370.38
698.90	368.51
699.23	366.56
699.57	364.72
699.90	362.87
700.24	361.03
700.58	359.24
700.91	357.55
701.25	355.83
701.58	354.20
701.92	352.66
702.25	351.09
702.59	349.47
702.92	347.89
703.26	346.38
703.59	344.84
703.93	343.40
704.26	342.00
704.60	340.48
704.93	338.96
705.26	337.45
705.60	335.98
705.93	334.60
706.27	333.36
706.60	332.10
706.94	330.86
707.27	329.54
707.61	328.25
707.94	326.97
708.27	325.71
708.61	324.39
708.94	323.12
709.28	321.93
709.61	320.78
709.94	319.63
710.28	318.41
710.61	317.20
710.95	315.94
711.28	314.80
711.61	313.70
711.95	312.65
712.28	311.60
712.61	310.47
712.95	309.31
713.28	308.26
713.61	307.21
713.95	306.12
714.28	305.11
714.61	304.08
714.95	303.09
715.28	302.06
715.61	301.03
715.95	300.06
716.28	299.00
716.61	298.03
716.95	297.06
717.28	296.16
717.61	295.26
717.94	294.40
718.28	293.49
718.61	292.55
718.94	291.68
719.27	290.84
719.61	290.07
719.94	289.26
720.27	288.39
720.60	287.58
720.94	286.89
721.27	286.19
721.60	285.52
721.93	284.81
722.27	284.11
722.60	283.44
722.93	282.74
723.26	282.15
723.59	281.48
723.93	280.83
724.26	280.14
724.59	279.47
724.92	278.81
725.25	278.22
725.59	277.60
725.92	277.05
726.25	276.45
726.58	275.87
726.91	275.32
727.24	274.76
727.57	274.19
727.91	273.56
728.24	272.97
728.57	272.40
728.90	271.84
729.23	271.34
729.56	270.84
729.89	270.28
730.22	269.69
730.55	269.13
730.89	268.62
731.22	268.14
731.55	267.65
731.88	267.20
732.21	266.69
732.54	266.23
732.87	265.70
733.20	265.21
733.53	264.75
733.86	264.31
734.19	263.87
734.52	263.42
734.85	263.07
735.18	262.59
735.51	262.15
735.84	261.72
736.17	261.26
736.50	260.78
736.83	260.47
737.16	260.06
737.49	259.70
737.82	259.27
738.15	258.88
738.48	258.50
738.81	258.09
739.14	257.71
739.47	257.34
739.80	256.96
740.13	256.62
740.46	256.23
740.79	255.85
741.12	255.45
741.45	255.10
741.78	254.68
742.11	254.37
742.44	254.01
742.77	253.66
743.10	253.33
743.43	253.00
743.75	252.55
744.08	252.36
744.41	251.99
744.74	251.71
745.07	251.35
745.40	251.03
745.73	250.71
746.06	250.40
746.39	250.06
746.71	249.77
747.04	249.45
747.37	249.15
747.70	248.83
748.03	248.55
748.36	248.26
748.68	248.00
749.01	247.68
749.34	247.40
749.67	247.13
750.00	246.89
750.33	246.70
750.65	246.46
750.98	246.10
751.31	245.86
751.64	245.62
751.97	245.46
752.29	245.19
752.62	244.91
752.95	244.62
753.28	244.39
753.60	244.12
753.93	243.90
754.26	243.65
754.59	243.40
754.91	243.14
755.24	242.90
755.57	242.65
755.90	242.47
756.22	242.24
756.55	242.00
756.88	241.75
757.20	241.47
757.53	241.26
757.86	241.04
758.19	240.85
758.51	240.59
758.84	240.30
759.17	240.13
759.49	239.95
759.82	239.85
760.15	239.65
760.47	239.48
760.80	239.24
761.13	239.05
761.45	238.87
761.78	238.71
762.11	238.51
762.43	238.33
762.76	238.15
763.08	238.01
763.41	237.86
763.74	237.70
764.06	237.54
764.39	237.37
764.71	237.23
765.04	237.07
765.37	236.92
765.69	236.78
766.02	236.62
766.34	236.47
766.67	236.26
767.00	236.14
767.32	236.04
767.65	236.00
767.97	235.86
768.30	235.75
768.62	235.59
768.95	235.48
769.27	235.33
769.60	235.19
769.92	235.03
770.25	234.90
770.57	234.75
770.90	234.61
771.22	234.49
771.55	234.34
771.87	234.24
772.20	234.14
772.52	234.09
772.85	234.10
773.17	233.99
773.50	233.89
773.82	233.76
774.15	233.61
774.47	233.45
774.80	233.37
775.12	233.26
775.45	233.18
775.77	233.09
776.09	233.02
776.42	232.96
776.74	232.89
777.07	232.77
777.39	232.67
777.72	232.60
778.04	232.53
778.36	232.46
778.69	232.37
779.01	232.32
779.33	232.19
779.66	232.01
779.98	231.91
780.31	231.85
780.63	231.81
780.95	231.77
781.28	231.69
781.60	231.62
781.92	231.57
782.25	231.48
782.57	231.40
782.89	231.32
783.22	231.24
783.54	231.16
783.86	231.14
784.19	231.11
784.51	231.08
784.83	230.98
785.16	230.91
785.48	230.82
785.80	230.72
786.12	230.66
786.45	230.60
786.77	230.59
787.09	230.53
787.42	230.45
787.74	230.40
788.06	230.38
788.38	230.37
788.71	230.31
789.03	230.27
789.35	230.26
789.67	230.19
789.99	230.16
790.32	230.07
790.64	230.01
790.96	230.06
791.28	229.99
791.61	229.95
791.93	229.92
792.25	229.91
792.57	229.96
792.89	229.90
793.21	229.86
793.54	229.78
793.86	229.71
794.18	229.68
794.50	229.59
794.82	229.52
795.14	229.40
795.47	229.38
795.79	229.37
796.11	229.30
796.43	229.30
796.75	229.26
797.07	229.24
797.39	229.25
797.71	229.10
798.04	229.03
798.36	228.99
798.68	228.93
799.00	228.88
799.32	228.79
799.64	228.77
799.96	228.71
800.28	228.68
800.60	228.63
800.92	228.60
801.24	228.60
801.56	228.58
801.89	228.58
802.21	228.54
802.53	228.45
802.85	228.45
803.17	228.44
803.49	228.36
803.81	228.36
804.13	228.29
804.45	228.27
804.77	228.26
805.09	228.26
805.41	228.22
805.73	228.20
806.05	228.14
806.37	228.12
806.69	228.09
807.01	228.04
807.33	228.02
807.65	227.97
807.97	227.98
808.28	227.92
808.60	227.90
808.92	227.86
809.24	227.91
809.56	227.86
809.88	227.81
810.20	227.80
810.52	227.75
810.84	227.71
811.16	227.68
811.48	227.62
811.80	227.62
812.12	227.60
812.43	227.57
812.75	227.54
813.07	227.47
813.39	227.48
813.71	227.47
814.03	227.45
814.35	227.42
814.67	227.36
814.98	227.31
815.30	227.29
815.62	227.26
815.94	227.15
816.26	227.17
816.58	227.10
816.89	227.06
817.21	227.00
817.53	227.02
817.85	227.01
818.17	227.03
818.48	226.97
818.80	227.00
819.12	226.95
819.44	226.92
819.76	226.92
820.07	226.88
820.39	226.83
820.71	226.81
821.03	226.78
821.34	226.77
821.66	226.76
821.98	226.74
822.30	226.73
822.61	226.78
822.93	226.72
823.25	226.72
823.57	226.69
823.88	226.71
824.20	226.66
824.52	226.65
824.83	226.61
825.15	226.52
825.47	226.47
825.79	226.50
826.10	226.48
826.42	226.45
826.74	226.46
827.05	226.48
827.37	226.49
827.69	226.51
828.00	226.50
828.32	226.53
828.64	226.51
828.95	226.54
829.27	226.50
829.58	226.49
829.90	226.49
830.22	226.50
830.53	226.50
830.85	226.49
831.17	226.46
831.48	226.47
831.80	226.51
832.11	226.51
832.43	226.49
832.75	226.52
833.06	226.59
833.38	226.56
833.69	226.54
834.01	226.52
834.32	226.49
834.64	226.45
834.96	226.44
835.27	226.43
835.59	226.41
835.90	226.39
836.22	226.41
836.53	226.36
836.85	226.33
837.16	226.40
837.48	226.41
837.79	226.42
838.11	226.42
838.42	226.41
838.74	226.40
839.05	226.39
839.37	226.37
839.68	226.32
840.00	226.30
840.31	226.28
840.63	226.27
840.94	226.25
841.26	226.24
841.57	226.21
841.88	226.20
842.20	226.18
842.51	226.14
842.83	226.12
843.14	226.20
843.46	226.23
843.77	226.14
844.08	226.11
844.40	226.05
844.71	226.05
845.03	226.05
845.34	226.03
845.65	225.99
845.97	225.92
846.28	225.91
846.60	225.89
846.91	225.87
847.22	225.83
847.54	225.84
847.85	225.83
848.16	225.81
848.48	225.79
848.79	225.80
849.10	225.85
849.42	225.82
849.73	225.75
850.04	225.73
850.36	225.72
850.67	225.72
850.98	225.73
851.30	225.74
851.61	225.69
851.92	225.65
852.23	225.72
852.55	225.77
852.86	225.74
853.17	225.75
853.49	225.74
853.80	225.78
854.11	225.77
854.42	225.78
854.74	225.76
855.05	225.76
855.36	225.71
855.67	225.68
855.99	225.67
856.30	225.80
856.61	225.77
856.92	225.75
857.23	225.76
857.55	225.74
857.86	225.72
858.17	225.77
858.48	225.78
858.79	225.73
859.11	225.72
859.42	225.70
859.73	225.67
860.04	225.70
860.35	225.66
860.66	225.63
860.98	225.63
861.29	225.65
861.60	225.65
861.91	225.66
862.22	225.64
862.53	225.63
862.84	225.51
863.16	225.53
863.47	225.50
863.78	225.46
864.09	225.49
864.40	225.47
864.71	225.42
865.02	225.44
865.33	225.42
865.64	225.42
865.95	225.47
866.27	225.55
866.58	225.49
866.89	225.50
867.20	225.54
867.51	225.53
867.82	225.50
868.13	225.51
868.44	225.48
868.75	225.49
869.06	225.47
869.37	225.45
869.68	225.41
869.99	225.45
870.30	225.46
870.61	225.43
870.92	225.41
871.23	225.41
871.54	225.37
871.85	225.40
872.16	225.38
872.47	225.32
872.78	225.26
873.09	225.28
873.40	225.25
873.71	225.25
874.02	225.25
874.33	225.27
874.64	225.24
874.95	225.25
875.26	225.23
875.56	225.23
875.87	225.22
876.18	225.25
876.49	225.33
876.80	225.31
877.11	225.31
877.42	225.35
877.73	225.37
878.04	225.40
878.35	225.38
878.66	225.37
878.96	225.41
879.27	225.41
879.58	225.42
879.89	225.45
880.20	225.45
880.51	225.41
880.82	225.41
881.12	225.43
881.43	225.42
881.74	225.43
882.05	225.43
882.36	225.43
882.67	225.41
882.97	225.31
883.28	225.30
883.59	225.30
883.90	225.29
884.21	225.27
884.51	225.25
884.82	225.23
885.13	225.25
885.44	225.20
885.74	225.17
886.05	225.13
886.36	225.10
886.67	225.08
886.98	225.15
887.28	225.14
887.59	225.12
887.90	225.12
888.20	225.14
888.51	225.15
888.82	225.14
889.13	225.17
889.43	225.25
889.74	225.27
890.05	225.27
890.35	225.27
890.66	225.27
890.97	225.27
891.28	225.27
891.58	225.26
891.89	225.29
892.20	225.29
892.50	225.31
892.81	225.28
893.12	225.27
893.42	225.22
893.73	225.22
894.04	225.22
894.34	225.24
894.65	225.23
894.95	225.22
895.26	225.27
895.57	225.27
895.87	225.17
896.18	225.19
896.48	225.18
896.79	225.18
897.10	225.19
897.40	225.18
897.71	225.18
898.01	225.16
898.32	225.12
898.63	225.12
898.93	225.12
899.24	225.13
899.54	225.12
899.85	225.11
900.15	225.10
900.46	225.11
900.76	225.13
901.07	225.10
901.38	225.12
901.68	225.10
901.99	225.08
902.29	225.09
902.60	225.09
902.90	225.11
903.21	225.10
903.51	225.12
903.82	225.14
904.12	225.17
904.43	225.20
904.73	225.24
905.03	225.28
905.34	225.38
905.64	225.41
905.95	225.43
906.25	225.46
906.56	225.46
906.86	225.45
907.17	225.44
907.47	225.42
907.77	225.41
908.08	225.40
908.38	225.41
908.69	225.41
908.99	225.40
909.30	225.40
909.60	225.40
909.90	225.34
910.21	225.33
910.51	225.30
910.81	225.30
911.12	225.32
911.42	225.29
911.73	225.18
912.03	225.17
912.33	225.16
912.64	225.14
912.94	225.13
913.24	225.10
913.55	225.07
913.85	225.10
914.15	225.11
914.46	225.09
914.76	225.07
915.06	225.05
915.37	225.05
915.67	225.05
915.97	225.06
916.27	225.05
916.58	225.04
916.88	225.04
917.18	225.04
917.49	225.08
917.79	225.07
918.09	225.09
918.39	225.11
918.70	225.13
919.00	225.15
919.30	225.21
919.60	225.21
919.91	225.23
920.21	225.20
920.51	225.18
920.81	225.20
921.12	225.19
921.42	225.19
921.72	225.19
922.02	225.14
922.32	225.18
922.63	225.16
922.93	225.21
923.23	225.22
923.53	225.21
923.83	225.17
924.13	225.19
924.44	225.19
924.74	225.20
925.04	225.22
925.34	225.21
925.64	225.16
925.94	225.15
926.24	225.19
926.55	225.20
926.85	225.19
927.15	225.18
927.45	225.16
927.75	225.15
928.05	225.14
928.35	225.16
928.65	225.16
928.95	225.18
929.26	225.13
929.56	225.12
929.86	225.09
930.16	225.06
930.46	225.01
930.76	225.02
931.06	224.96
931.36	224.91
931.66	224.90
931.96	224.92
932.26	224.95
932.56	224.90
932.86	224.91
933.16	224.91
933.46	224.89
933.76	224.93
934.06	224.96
934.36	224.99
934.66	224.96
934.96	224.95
935.26	224.94
935.56	224.96
935.86	224.94
936.16	224.93
936.46	224.91
936.76	224.92
937.06	224.88
937.36	224.92
937.66	224.91
937.96	224.90
938.26	224.85
938.56	224.81
938.86	224.80
939.16	224.82
939.46	224.82
939.76	224.84
940.06	224.84
940.35	224.82
940.65	224.76
940.95	224.80
941.25	224.74
941.55	224.76
941.85	224.77
942.15	224.81
942.45	224.87
942.75	224.89
943.04	224.86
943.34	224.87
943.64	224.84
943.94	224.87
944.24	224.88
944.54	224.90
944.84	224.89
945.13	224.88
945.43	224.83
945.73	224.83
946.03	224.81
946.33	224.77
946.62	224.80
946.92	224.81
947.22	224.82
947.52	224.83
947.82	224.83
948.11	224.80
948.41	224.76
948.71	224.71
949.01	224.72
949.31	224.76
949.60	224.77
949.90	224.79
950.20	224.77
950.50	224.76
950.79	224.75
951.09	224.80
951.39	224.80
951.69	224.80
951.98	224.79
952.28	224.80
952.58	224.87
952.87	224.84
953.17	224.85
953.47	224.84
953.76	224.86
954.06	224.86
954.36	224.85
954.66	224.86
954.95	224.89
955.25	224.86
955.55	224.85
955.84	224.84
956.14	224.82
956.44	224.82
956.73	224.80
957.03	224.82
957.32	224.81
957.62	224.81
957.92	224.82
958.21	224.85
958.51	224.95
958.81	224.95
959.10	224.95
959.40	224.95
959.69	224.94
959.99	224.93
960.29	224.95
960.58	224.97
960.88	224.99
961.17	225.01
961.47	225.02
961.76	225.02
962.06	225.03
962.36	225.04
962.65	225.06
962.95	225.12
963.24	225.13
963.54	225.17
963.83	225.17
964.13	225.17
964.42	225.14
964.72	225.08
965.01	225.05
965.31	225.05
965.60	225.03
965.90	225.10
966.19	225.11
966.49	225.08
966.78	225.06
967.08	225.05
967.37	225.04
967.67	225.03
967.96	225.04
968.26	225.06
968.55	225.09
968.85	225.06
969.14	225.02
969.43	225.02
969.73	224.97
970.02	224.98
970.32	224.99
970.61	224.98
970.91	224.95
971.20	224.94
971.49	224.93
971.79	224.93
972.08	224.83
972.38	224.81
972.67	224.80
972.96	224.82
973.26	224.81
973.55	224.83
973.85	224.84
974.14	224.82
974.43	224.80
974.73	224.75
975.02	224.75
975.31	224.76
975.61	224.76
975.90	224.76
976.19	224.76
976.49	224.77
976.78	224.79
977.07	224.78
977.37	224.75
977.66	224.75
977.95	224.76
978.24	224.78
978.54	224.82
978.83	224.85
979.12	224.81
979.42	224.81
979.71	224.74
980.00	224.74
980.29	224.78
980.59	224.75
980.88	224.78
981.17	224.79
981.46	224.77
981.76	224.73
982.05	224.75
982.34	224.75
982.63	224.75
982.93	224.75
983.22	224.81
983.51	224.87
983.80	224.90
984.09	224.90
984.39	224.90
984.68	224.87
984.97	224.86
985.26	224.88
985.55	224.89
985.85	224.91
986.14	224.89
986.43	224.88
986.72	224.89
987.01	224.87
987.30	224.86
987.59	224.84
987.89	224.84
988.18	224.84
988.47	224.85
988.76	224.84
989.05	224.82
989.34	224.76
989.63	224.77
989.92	224.73
990.22	224.75
990.51	224.74
990.80	224.76
991.09	224.79
991.38	224.83
991.67	224.82
991.96	224.82
992.25	224.88
992.54	224.85
992.83	224.85
993.12	224.85
993.41	224.87
993.70	224.93
993.99	224.98
994.28	224.99
994.58	224.97
994.87	224.95
995.16	224.96
995.45	224.98
995.74	224.96
996.03	224.98
996.32	224.96
996.61	224.97
996.90	224.95
997.19	224.94
997.48	224.93
997.77	224.94
998.06	224.99
998.34	224.97
998.63	224.99
998.92	225.04
999.21	225.06
999.50	225.05
999.79	225.01
1000.08	225.01
1000.37	225.00
1000.66	225.03
1000.95	225.04
1001.24	225.03
1001.53	225.00
1001.82	225.01
1002.11	224.93
1002.40	224.97
1002.68	225.00
1002.97	225.07
1003.26	225.03
1003.55	224.99
1003.84	224.97
1004.13	224.97
1004.42	224.95
1004.71	224.94
1004.99	224.89
1005.28	224.92
1005.57	224.92
1005.86	224.93
1006.15	224.87
1006.44	224.84
1006.72	224.86
1007.01	224.80
1007.30	224.78
1007.59	224.81
1007.88	224.80
1008.17	224.83
1008.45	224.79
1008.74	224.73
1009.03	224.67
1009.32	224.67
1009.60	224.68
1009.89	224.68
1010.18	224.59
1010.47	224.56
1010.76	224.58
1011.04	224.59
1011.33	224.54
1011.62	224.55
1011.91	224.55
1012.19	224.59
1012.48	224.61
1012.77	224.59
1013.05	224.68
1013.34	224.68
1013.63	224.66
1013.92	224.68
1014.20	224.69
1014.49	224.71
1014.78	224.70
1015.06	224.72
1015.35	224.73
1015.64	224.76
1015.92	224.78
1016.21	224.81
1016.50	224.81
1016.78	224.79
1017.07	224.81
1017.36	224.80
1017.64	224.80
1017.93	224.82
1018.22	224.78
1018.50	224.78
1018.79	224.73
1019.08	224.71
1019.36	224.73
1019.65	224.74
1019.93	224.74
1020.22	224.79
1020.51	224.85
1020.79	224.86
1021.08	224.43
1021.36	224.48
1021.65	224.18
1021.94	225.07
1022.22	224.58
1022.51	225.02
1022.79	225.06
1023.08	225.60
1023.36	226.26
1023.65	224.41
>>>>>End Processed Spectral Data<<<<<
