SpectraSuite Data File
++++++++++++++++++++++++++++++++++++
Date: Fri Feb 01 18:13:43 EST 2013
User: group
Dark Spectrum Present: No
Reference Spectrum Present: No
Number of Sampled Component Spectra: 1
Spectrometers: USB2E7196
Integration Time (usec): 35000 (USB2E7196)
Spectra Averaged: 100 (USB2E7196)
Boxcar Smoothing: 10 (USB2E7196)
Correct for Electrical Dark: No (USB2E7196)
Strobe/Lamp Enabled: No (USB2E7196)
Correct for Detector Non-linearity: No (USB2E7196)
Correct for Stray Light: No (USB2E7196)
Number of Pixels in Processed Spectrum: 2048
>>>>>Begin Processed Spectral Data<<<<<
339.09	0.00
339.48	212.86
339.86	214.99
340.24	215.66
340.63	217.39
341.01	219.64
341.39	219.87
341.78	221.94
342.16	222.58
342.54	223.24
342.93	211.31
343.31	222.00
343.69	222.53
344.07	222.95
344.46	223.39
344.84	223.75
345.22	224.00
345.60	224.25
345.99	224.43
346.37	224.57
346.75	224.69
347.13	224.79
347.52	224.87
347.90	224.98
348.28	225.04
348.66	225.09
349.05	225.10
349.43	225.20
349.81	225.22
350.19	225.29
350.57	225.38
350.96	225.43
351.34	225.52
351.72	225.63
352.10	225.73
352.48	225.79
352.87	225.88
353.25	225.97
353.63	226.05
354.01	226.08
354.39	226.15
354.77	226.20
355.15	226.29
355.54	226.37
355.92	226.39
356.30	226.48
356.68	226.59
357.06	226.69
357.44	226.72
357.82	226.81
358.20	226.88
358.58	226.94
358.97	227.06
359.35	227.12
359.73	227.17
360.11	227.25
360.49	227.31
360.87	227.36
361.25	227.41
361.63	227.48
362.01	227.55
362.39	227.56
362.77	227.60
363.15	227.65
363.53	227.70
363.91	227.73
364.29	227.76
364.67	227.71
365.05	227.73
365.43	227.77
365.81	227.79
366.19	227.85
366.57	227.89
366.95	227.87
367.33	227.87
367.71	227.89
368.09	227.92
368.47	227.94
368.85	227.92
369.23	227.94
369.61	227.90
369.99	227.92
370.37	227.94
370.75	227.98
371.13	227.91
371.51	227.86
371.89	227.87
372.27	227.83
372.65	227.82
373.03	227.80
373.41	227.77
373.78	227.74
374.16	227.63
374.54	227.56
374.92	227.50
375.30	227.48
375.68	227.42
376.06	227.36
376.44	227.27
376.82	227.22
377.19	227.18
377.57	227.11
377.95	227.02
378.33	226.94
378.71	226.83
379.09	226.77
379.47	226.71
379.84	226.62
380.22	226.54
380.60	226.45
380.98	226.35
381.36	226.25
381.73	226.19
382.11	226.18
382.49	226.12
382.87	226.07
383.25	225.98
383.62	226.03
384.00	225.97
384.38	225.95
384.76	225.97
385.13	225.93
385.51	225.87
385.89	225.80
386.27	225.75
386.64	225.72
387.02	225.66
387.40	225.61
387.78	225.60
388.15	225.59
388.53	225.54
388.91	225.53
389.29	225.51
389.66	225.50
390.04	225.45
390.42	225.45
390.79	225.43
391.17	225.39
391.55	225.28
391.92	225.22
392.30	225.22
392.68	225.13
393.05	225.11
393.43	225.11
393.81	225.13
394.18	225.12
394.56	225.12
394.94	225.18
395.31	225.18
395.69	225.24
396.06	225.27
396.44	225.34
396.82	225.35
397.19	225.42
397.57	225.44
397.95	225.47
398.32	225.49
398.70	225.55
399.07	225.63
399.45	225.68
399.82	225.74
400.20	225.77
400.58	225.85
400.95	225.88
401.33	225.98
401.70	226.15
402.08	226.23
402.45	226.36
402.83	226.46
403.20	226.57
403.58	226.64
403.95	226.79
404.33	226.90
404.71	227.03
405.08	227.21
405.46	227.35
405.83	227.54
406.21	227.68
406.58	227.85
406.96	228.04
407.33	228.21
407.70	228.48
408.08	228.83
408.45	229.10
408.83	229.41
409.20	229.65
409.58	229.86
409.95	230.22
410.33	230.55
410.70	230.92
411.08	231.30
411.45	231.69
411.82	232.07
412.20	232.51
412.57	233.04
412.95	233.48
413.32	234.05
413.69	234.58
414.07	235.21
414.44	235.89
414.82	236.59
415.19	237.37
415.56	238.12
415.94	238.89
416.31	239.78
416.68	240.65
417.06	241.66
417.43	242.58
417.81	243.64
418.18	244.71
418.55	245.84
418.93	247.09
419.30	248.37
419.67	249.70
420.04	251.07
420.42	252.50
420.79	254.11
421.16	255.72
421.54	257.38
421.91	259.08
422.28	260.76
422.66	262.66
423.03	264.45
423.40	266.29
423.77	268.25
424.15	270.26
424.52	272.35
424.89	274.60
425.26	276.84
425.64	278.87
426.01	281.10
426.38	283.44
426.75	285.73
427.13	288.13
427.50	290.67
427.87	293.33
428.24	295.98
428.61	298.47
428.99	301.16
429.36	304.19
429.73	307.12
430.10	310.04
430.47	312.87
430.85	315.91
431.22	319.09
431.59	322.47
431.96	325.68
432.33	329.19
432.70	332.55
433.08	336.51
433.45	340.26
433.82	343.95
434.19	348.03
434.56	352.05
434.93	355.80
435.30	359.52
435.68	363.64
436.05	367.66
436.42	371.66
436.79	375.28
437.16	379.12
437.53	383.11
437.90	387.05
438.27	390.97
438.64	394.97
439.01	398.68
439.38	401.87
439.75	404.88
440.13	408.37
440.50	411.68
440.87	414.30
441.24	417.06
441.61	420.13
441.98	422.29
442.35	424.86
442.72	427.49
443.09	430.04
443.46	431.39
443.83	432.20
444.20	432.90
444.57	434.10
444.94	434.40
445.31	434.86
445.68	435.33
446.05	435.45
446.42	434.86
446.79	434.27
447.16	433.61
447.53	433.13
447.90	431.50
448.27	429.86
448.64	427.59
449.01	425.96
449.37	423.15
449.74	420.44
450.11	417.22
450.48	413.73
450.85	410.14
451.22	407.14
451.59	404.28
451.96	401.54
452.33	397.84
452.70	394.55
453.07	390.58
453.43	386.55
453.80	382.63
454.17	378.86
454.54	375.23
454.91	371.39
455.28	367.65
455.65	364.15
456.02	360.64
456.38	357.65
456.75	353.88
457.12	350.71
457.49	347.51
457.86	344.48
458.23	341.84
458.59	338.91
458.96	335.91
459.33	333.27
459.70	330.61
460.07	328.44
460.43	325.99
460.80	323.65
461.17	321.55
461.54	319.39
461.91	317.38
462.27	315.32
462.64	313.50
463.01	311.55
463.38	309.67
463.74	307.77
464.11	306.11
464.48	304.62
464.85	303.03
465.21	301.80
465.58	300.43
465.95	298.86
466.32	297.54
466.68	296.26
467.05	294.97
467.42	293.69
467.78	292.34
468.15	291.10
468.52	290.15
468.88	288.96
469.25	287.87
469.62	286.96
469.98	285.97
470.35	285.09
470.72	284.21
471.08	283.28
471.45	282.49
471.82	281.69
472.18	280.82
472.55	280.18
472.92	279.43
473.28	278.77
473.65	278.13
474.02	277.53
474.38	276.98
474.75	276.48
475.11	275.95
475.48	275.57
475.85	275.19
476.21	274.82
476.58	274.47
476.94	274.21
477.31	273.90
477.67	273.62
478.04	273.39
478.41	273.27
478.77	273.22
479.14	273.07
479.50	272.99
479.87	273.01
480.23	273.04
480.60	273.03
480.96	273.03
481.33	273.19
481.69	273.32
482.06	273.45
482.42	273.63
482.79	273.82
483.15	274.09
483.52	274.46
483.88	274.77
484.25	275.14
484.61	275.54
484.98	276.00
485.34	276.58
485.71	277.15
486.07	277.73
486.44	278.31
486.80	279.02
487.17	279.77
487.53	280.64
487.90	281.50
488.26	282.49
488.62	283.53
488.99	284.52
489.35	285.61
489.72	286.81
490.08	288.05
490.44	289.34
490.81	290.77
491.17	292.15
491.54	293.72
491.90	295.32
492.26	297.09
492.63	298.92
492.99	300.82
493.36	302.88
493.72	305.11
494.08	307.39
494.45	309.76
494.81	312.30
495.17	314.88
495.54	317.62
495.90	320.48
496.26	323.50
496.63	326.67
496.99	330.05
497.35	333.53
497.72	337.21
498.08	341.04
498.44	344.99
498.80	349.21
499.17	353.60
499.53	358.10
499.89	362.79
500.26	367.62
500.62	372.62
500.98	377.98
501.34	383.39
501.71	389.12
502.07	395.00
502.43	401.06
502.79	407.27
503.16	413.85
503.52	420.62
503.88	427.51
504.24	434.70
504.60	442.06
504.97	449.83
505.33	457.74
505.69	466.06
506.05	474.43
506.41	482.91
506.78	491.68
507.14	500.82
507.50	510.21
507.86	519.98
508.22	529.94
508.59	539.84
508.95	550.18
509.31	560.83
509.67	571.78
510.03	582.95
510.39	594.52
510.75	606.22
511.12	618.09
511.48	630.43
511.84	642.85
512.20	655.46
512.56	668.40
512.92	681.65
513.28	695.07
513.64	708.79
514.00	722.79
514.37	736.95
514.73	751.24
515.09	765.45
515.45	779.88
515.81	794.78
516.17	810.13
516.53	825.66
516.89	841.16
517.25	856.74
517.61	872.69
517.97	888.60
518.33	904.41
518.69	920.72
519.05	937.13
519.41	953.87
519.77	971.03
520.13	988.16
520.49	1005.20
520.85	1022.37
521.21	1039.70
521.57	1057.55
521.93	1075.12
522.29	1093.34
522.65	1111.63
523.01	1129.78
523.37	1147.66
523.73	1165.76
524.09	1183.76
524.45	1202.13
524.81	1220.66
525.17	1239.34
525.53	1258.26
525.89	1277.31
526.25	1296.23
526.61	1314.72
526.97	1333.66
527.33	1352.28
527.68	1371.00
528.04	1389.65
528.40	1408.32
528.76	1427.73
529.12	1446.71
529.48	1465.89
529.84	1484.15
530.20	1503.05
530.56	1522.61
530.91	1542.58
531.27	1561.79
531.63	1580.69
531.99	1599.65
532.35	1618.16
532.71	1636.59
533.07	1655.23
533.42	1673.70
533.78	1692.29
534.14	1711.16
534.50	1728.96
534.86	1747.24
535.21	1764.95
535.57	1783.37
535.93	1801.51
536.29	1818.77
536.65	1836.33
537.00	1853.64
537.36	1871.55
537.72	1888.61
538.08	1905.58
538.44	1921.70
538.79	1938.10
539.15	1954.15
539.51	1970.37
539.87	1987.38
540.22	2003.62
540.58	2020.09
540.94	2035.84
541.29	2051.30
541.65	2066.57
542.01	2082.40
542.37	2097.39
542.72	2112.32
543.08	2126.88
543.44	2142.01
543.79	2155.78
544.15	2169.38
544.51	2183.65
544.87	2197.16
545.22	2210.57
545.58	2223.25
545.94	2235.77
546.29	2248.10
546.65	2260.71
547.01	2272.36
547.36	2283.40
547.72	2294.28
548.07	2304.60
548.43	2315.23
548.79	2325.56
549.14	2335.44
549.50	2345.03
549.86	2354.92
550.21	2364.51
550.57	2373.95
550.92	2382.62
551.28	2391.92
551.64	2401.14
551.99	2409.74
552.35	2418.11
552.70	2426.37
553.06	2434.61
553.41	2442.91
553.77	2451.06
554.13	2459.22
554.48	2467.71
554.84	2475.52
555.19	2482.82
555.55	2489.98
555.90	2496.31
556.26	2503.36
556.61	2509.99
556.97	2516.43
557.32	2522.67
557.68	2528.63
558.03	2534.67
558.39	2540.12
558.74	2546.74
559.10	2552.55
559.45	2557.96
559.81	2563.97
560.16	2569.68
560.52	2574.47
560.87	2579.55
561.23	2583.74
561.58	2588.19
561.94	2592.13
562.29	2595.64
562.64	2599.96
563.00	2603.97
563.35	2609.13
563.71	2613.58
564.06	2618.23
564.42	2622.42
564.77	2626.19
565.12	2630.12
565.48	2633.36
565.83	2636.57
566.19	2639.17
566.54	2641.04
566.89	2643.50
567.25	2645.38
567.60	2647.77
567.96	2650.84
568.31	2652.75
568.66	2655.24
569.02	2656.94
569.37	2658.15
569.72	2660.17
570.08	2661.15
570.43	2661.97
570.78	2662.17
571.14	2661.34
571.49	2660.62
571.84	2660.99
572.20	2660.66
572.55	2659.96
572.90	2658.85
573.26	2658.13
573.61	2656.61
573.96	2655.48
574.31	2652.77
574.67	2649.90
575.02	2646.37
575.37	2642.77
575.72	2639.05
576.08	2635.41
576.43	2631.97
576.78	2628.54
577.13	2625.28
577.49	2622.11
577.84	2618.68
578.19	2614.76
578.54	2611.06
578.90	2606.78
579.25	2600.83
579.60	2595.47
579.95	2590.26
580.30	2584.92
580.66	2579.19
581.01	2573.96
581.36	2568.48
581.71	2564.03
582.06	2559.35
582.42	2554.53
582.77	2549.13
583.12	2544.20
583.47	2539.15
583.82	2533.88
584.17	2528.03
584.53	2522.09
584.88	2515.81
585.23	2509.45
585.58	2503.40
585.93	2497.33
586.28	2491.97
586.63	2486.43
586.98	2480.74
587.34	2475.43
587.69	2469.99
588.04	2464.18
588.39	2457.77
588.74	2450.36
589.09	2443.20
589.44	2435.38
589.79	2428.37
590.14	2421.71
590.49	2414.18
590.84	2406.84
591.19	2399.74
591.54	2392.35
591.89	2383.95
592.25	2376.27
592.60	2367.80
592.95	2359.08
593.30	2350.42
593.65	2341.61
594.00	2333.36
594.35	2324.99
594.70	2315.58
595.05	2307.31
595.40	2298.69
595.75	2289.96
596.10	2282.94
596.45	2275.12
596.80	2267.96
597.15	2260.37
597.50	2252.27
597.85	2244.59
598.19	2236.88
598.54	2228.73
598.89	2220.97
599.24	2213.97
599.59	2206.23
599.94	2198.98
600.29	2191.38
600.64	2183.64
600.99	2174.95
601.34	2166.90
601.69	2158.53
602.04	2150.61
602.39	2141.89
602.74	2133.86
603.08	2125.85
603.43	2117.67
603.78	2108.92
604.13	2100.28
604.48	2091.59
604.83	2083.30
605.18	2075.16
605.53	2065.68
605.87	2056.05
606.22	2047.26
606.57	2037.65
606.92	2028.70
607.27	2020.13
607.62	2011.97
607.96	2003.40
608.31	1995.61
608.66	1986.44
609.01	1977.55
609.36	1968.33
609.70	1958.52
610.05	1948.90
610.40	1939.75
610.75	1929.97
611.10	1920.86
611.44	1910.66
611.79	1900.92
612.14	1890.51
612.49	1879.38
612.83	1869.35
613.18	1859.60
613.53	1849.96
613.88	1839.76
614.22	1829.86
614.57	1819.48
614.92	1809.99
615.27	1801.00
615.61	1790.78
615.96	1781.16
616.31	1771.78
616.65	1762.92
617.00	1753.91
617.35	1744.66
617.70	1734.66
618.04	1724.36
618.39	1714.35
618.74	1705.23
619.08	1695.38
619.43	1686.33
619.78	1678.00
620.12	1669.36
620.47	1660.34
620.82	1650.34
621.16	1641.32
621.51	1631.98
621.85	1622.82
622.20	1612.40
622.55	1602.09
622.89	1592.58
623.24	1583.18
623.59	1574.18
623.93	1565.04
624.28	1556.32
624.62	1547.15
624.97	1538.30
625.32	1530.02
625.66	1521.57
626.01	1512.84
626.35	1503.96
626.70	1494.48
627.04	1485.27
627.39	1475.72
627.73	1466.68
628.08	1458.36
628.43	1449.77
628.77	1441.14
629.12	1432.01
629.46	1423.41
629.81	1414.48
630.15	1405.83
630.50	1397.11
630.84	1387.45
631.19	1377.89
631.53	1368.80
631.88	1359.70
632.22	1350.64
632.57	1341.88
632.91	1332.75
633.26	1323.94
633.60	1314.90
633.95	1306.25
634.29	1297.70
634.64	1289.72
634.98	1280.97
635.32	1272.44
635.67	1264.32
636.01	1256.20
636.36	1248.06
636.70	1240.13
637.05	1232.25
637.39	1224.43
637.73	1216.59
638.08	1209.45
638.42	1202.30
638.77	1194.61
639.11	1186.93
639.45	1179.29
639.80	1171.40
640.14	1163.77
640.49	1156.09
640.83	1148.61
641.17	1141.27
641.52	1133.63
641.86	1125.87
642.20	1118.84
642.55	1111.28
642.89	1103.65
643.23	1095.81
643.58	1088.98
643.92	1081.80
644.26	1074.64
644.61	1067.45
644.95	1060.27
645.29	1052.54
645.64	1044.54
645.98	1037.11
646.32	1029.93
646.66	1022.85
647.01	1015.90
647.35	1009.14
647.69	1002.12
648.04	995.51
648.38	988.71
648.72	981.79
649.06	974.75
649.41	967.71
649.75	960.68
650.09	953.59
650.43	946.77
650.78	939.38
651.12	932.21
651.46	925.47
651.80	918.77
652.14	912.37
652.49	905.97
652.83	899.87
653.17	893.08
653.51	886.41
653.85	879.91
654.20	873.29
654.54	866.23
654.88	859.42
655.22	852.40
655.56	845.60
655.90	839.03
656.25	832.78
656.59	826.51
656.93	820.45
657.27	814.35
657.61	807.96
657.95	801.97
658.29	795.97
658.64	789.65
658.98	783.30
659.32	776.86
659.66	770.64
660.00	764.37
660.34	758.46
660.68	752.68
661.02	746.77
661.36	741.22
661.70	735.91
662.05	730.77
662.39	725.71
662.73	720.43
663.07	715.28
663.41	710.07
663.75	704.75
664.09	699.37
664.43	694.13
664.77	689.29
665.11	684.27
665.45	679.30
665.79	674.50
666.13	669.70
666.47	664.88
666.81	660.09
667.15	655.23
667.49	650.70
667.83	646.20
668.17	641.58
668.51	636.73
668.85	631.90
669.19	627.35
669.53	622.83
669.87	618.25
670.21	613.94
670.55	609.59
670.89	605.54
671.23	601.47
671.57	597.31
671.91	593.13
672.25	588.99
672.58	584.92
672.92	580.89
673.26	577.10
673.60	573.39
673.94	569.72
674.28	566.22
674.62	562.70
674.96	559.05
675.30	555.61
675.64	552.23
675.97	548.93
676.31	545.55
676.65	542.05
676.99	538.88
677.33	535.42
677.67	532.14
678.01	528.56
678.34	525.07
678.68	521.77
679.02	518.48
679.36	515.26
679.70	512.06
680.04	508.86
680.37	505.48
680.71	502.21
681.05	499.08
681.39	495.93
681.73	492.83
682.06	489.83
682.40	486.87
682.74	483.80
683.08	480.85
683.42	477.80
683.75	474.88
684.09	471.89
684.43	469.02
684.77	466.10
685.10	463.32
685.44	460.58
685.78	457.87
686.12	455.17
686.45	452.45
686.79	449.73
687.13	447.07
687.46	444.54
687.80	441.93
688.14	439.30
688.48	436.84
688.81	434.19
689.15	431.63
689.49	429.04
689.82	426.60
690.16	424.17
690.50	421.78
690.83	419.50
691.17	417.13
691.51	414.87
691.84	412.67
692.18	410.38
692.52	408.09
692.85	405.76
693.19	403.55
693.52	401.39
693.86	399.17
694.20	397.05
694.53	394.89
694.87	392.74
695.21	390.65
695.54	388.51
695.88	386.43
696.21	384.40
696.55	382.39
696.88	380.42
697.22	378.38
697.56	376.48
697.89	374.48
698.23	372.61
698.56	370.73
698.90	368.83
699.23	366.89
699.57	365.01
699.90	363.20
700.24	361.33
700.58	359.48
700.91	357.72
701.25	356.03
701.58	354.41
701.92	352.76
702.25	351.12
702.59	349.49
702.92	347.95
703.26	346.36
703.59	344.85
703.93	343.41
704.26	341.98
704.60	340.39
704.93	338.92
705.26	337.44
705.60	335.98
705.93	334.57
706.27	333.32
706.60	332.10
706.94	330.83
707.27	329.45
707.61	328.17
707.94	326.99
708.27	325.68
708.61	324.40
708.94	323.19
709.28	322.00
709.61	320.86
709.94	319.69
710.28	318.48
710.61	317.31
710.95	316.03
711.28	314.92
711.61	313.83
711.95	312.75
712.28	311.63
712.61	310.50
712.95	309.42
713.28	308.38
713.61	307.34
713.95	306.27
714.28	305.34
714.61	304.34
714.95	303.31
715.28	302.33
715.61	301.29
715.95	300.29
716.28	299.27
716.61	298.31
716.95	297.32
717.28	296.45
717.61	295.52
717.94	294.63
718.28	293.71
718.61	292.86
718.94	292.02
719.27	291.23
719.61	290.45
719.94	289.66
720.27	288.83
720.60	288.00
720.94	287.27
721.27	286.52
721.60	285.84
721.93	285.12
722.27	284.41
722.60	283.79
722.93	283.14
723.26	282.52
723.59	281.85
723.93	281.24
724.26	280.54
724.59	279.90
724.92	279.28
725.25	278.66
725.59	278.06
725.92	277.46
726.25	276.86
726.58	276.27
726.91	275.68
727.24	275.09
727.57	274.52
727.91	273.88
728.24	273.34
728.57	272.79
728.90	272.28
729.23	271.72
729.56	271.18
729.89	270.60
730.22	269.97
730.55	269.41
730.89	268.88
731.22	268.40
731.55	267.88
731.88	267.39
732.21	266.91
732.54	266.39
732.87	265.87
733.20	265.38
733.53	264.90
733.86	264.45
734.19	264.00
734.52	263.57
734.85	263.21
735.18	262.73
735.51	262.26
735.84	261.80
736.17	261.39
736.50	260.92
736.83	260.66
737.16	260.32
737.49	259.90
737.82	259.48
738.15	259.08
738.48	258.70
738.81	258.27
739.14	257.87
739.47	257.48
739.80	257.13
740.13	256.76
740.46	256.40
740.79	256.03
741.12	255.68
741.45	255.33
741.78	254.93
742.11	254.61
742.44	254.20
742.77	253.84
743.10	253.45
743.43	253.09
743.75	252.60
744.08	252.40
744.41	252.08
744.74	251.76
745.07	251.43
745.40	251.13
745.73	250.87
746.06	250.55
746.39	250.21
746.71	249.89
747.04	249.58
747.37	249.25
747.70	248.95
748.03	248.63
748.36	248.31
748.68	248.02
749.01	247.71
749.34	247.47
749.67	247.21
750.00	246.97
750.33	246.76
750.65	246.53
750.98	246.16
751.31	245.86
751.64	245.58
751.97	245.36
752.29	245.06
752.62	244.78
752.95	244.53
753.28	244.29
753.60	244.06
753.93	243.82
754.26	243.59
754.59	243.34
754.91	243.08
755.24	242.85
755.57	242.63
755.90	242.40
756.22	242.19
756.55	241.96
756.88	241.72
757.20	241.48
757.53	241.24
757.86	241.03
758.19	240.88
758.51	240.70
758.84	240.45
759.17	240.30
759.49	240.13
759.82	239.98
760.15	239.80
760.47	239.62
760.80	239.42
761.13	239.27
761.45	239.08
761.78	238.94
762.11	238.82
762.43	238.64
762.76	238.49
763.08	238.32
763.41	238.19
763.74	238.05
764.06	237.86
764.39	237.67
764.71	237.51
765.04	237.32
765.37	237.15
765.69	237.03
766.02	236.87
766.34	236.68
766.67	236.51
767.00	236.41
767.32	236.32
767.65	236.27
767.97	236.14
768.30	236.05
768.62	235.92
768.95	235.77
769.27	235.63
769.60	235.53
769.92	235.41
770.25	235.25
770.57	235.15
770.90	235.04
771.22	234.95
771.55	234.84
771.87	234.76
772.20	234.65
772.52	234.63
772.85	234.61
773.17	234.51
773.50	234.40
773.82	234.27
774.15	234.10
774.47	233.93
774.80	233.82
775.12	233.72
775.45	233.60
775.77	233.53
776.09	233.43
776.42	233.32
776.74	233.22
777.07	233.15
777.39	233.04
777.72	232.94
778.04	232.88
778.36	232.82
778.69	232.75
779.01	232.68
779.33	232.49
779.66	232.32
779.98	232.25
780.31	232.17
780.63	232.14
780.95	232.09
781.28	231.99
781.60	231.91
781.92	231.82
782.25	231.77
782.57	231.71
782.89	231.67
783.22	231.59
783.54	231.53
783.86	231.46
784.19	231.39
784.51	231.38
784.83	231.28
785.16	231.18
785.48	231.10
785.80	231.05
786.12	231.03
786.45	230.98
786.77	230.93
787.09	230.90
787.42	230.86
787.74	230.80
788.06	230.76
788.38	230.70
788.71	230.65
789.03	230.62
789.35	230.56
789.67	230.49
789.99	230.48
790.32	230.39
790.64	230.36
790.96	230.41
791.28	230.32
791.61	230.27
791.93	230.23
792.25	230.23
792.57	230.23
792.89	230.13
793.21	230.09
793.54	230.02
793.86	229.93
794.18	229.87
794.50	229.81
794.82	229.77
795.14	229.73
795.47	229.71
795.79	229.63
796.11	229.54
796.43	229.48
796.75	229.42
797.07	229.40
797.39	229.33
797.71	229.18
798.04	229.14
798.36	229.11
798.68	229.07
799.00	229.01
799.32	228.96
799.64	228.95
799.96	228.90
800.28	228.88
800.60	228.88
800.92	228.80
801.24	228.78
801.56	228.79
801.89	228.74
802.21	228.71
802.53	228.69
802.85	228.70
803.17	228.72
803.49	228.64
803.81	228.58
804.13	228.55
804.45	228.54
804.77	228.49
805.09	228.44
805.41	228.40
805.73	228.30
806.05	228.23
806.37	228.19
806.69	228.15
807.01	228.10
807.33	228.04
807.65	227.99
807.97	227.99
808.28	227.88
808.60	227.87
808.92	227.80
809.24	227.78
809.56	227.73
809.88	227.70
810.20	227.69
810.52	227.73
810.84	227.72
811.16	227.68
811.48	227.66
811.80	227.68
812.12	227.63
812.43	227.65
812.75	227.60
813.07	227.54
813.39	227.54
813.71	227.48
814.03	227.45
814.35	227.42
814.67	227.34
814.98	227.34
815.30	227.27
815.62	227.24
815.94	227.21
816.26	227.24
816.58	227.17
816.89	227.15
817.21	227.08
817.53	227.05
817.85	227.03
818.17	227.00
818.48	226.90
818.80	226.93
819.12	226.89
819.44	226.84
819.76	226.82
820.07	226.76
820.39	226.76
820.71	226.73
821.03	226.70
821.34	226.67
821.66	226.64
821.98	226.64
822.30	226.63
822.61	226.61
822.93	226.52
823.25	226.51
823.57	226.48
823.88	226.50
824.20	226.47
824.52	226.48
824.83	226.45
825.15	226.45
825.47	226.41
825.79	226.40
826.10	226.40
826.42	226.40
826.74	226.42
827.05	226.43
827.37	226.43
827.69	226.45
828.00	226.46
828.32	226.42
828.64	226.40
828.95	226.43
829.27	226.37
829.58	226.38
829.90	226.37
830.22	226.38
830.53	226.32
830.85	226.33
831.17	226.29
831.48	226.27
831.80	226.28
832.11	226.27
832.43	226.25
832.75	226.23
833.06	226.28
833.38	226.22
833.69	226.23
834.01	226.22
834.32	226.20
834.64	226.19
834.96	226.24
835.27	226.23
835.59	226.18
835.90	226.20
836.22	226.21
836.53	226.19
836.85	226.15
837.16	226.24
837.48	226.23
837.79	226.25
838.11	226.25
838.42	226.24
838.74	226.27
839.05	226.27
839.37	226.27
839.68	226.22
840.00	226.21
840.31	226.21
840.63	226.18
840.94	226.17
841.26	226.12
841.57	226.11
841.88	226.11
842.20	226.10
842.51	226.05
842.83	226.04
843.14	226.11
843.46	226.13
843.77	226.07
844.08	226.06
844.40	226.01
844.71	226.02
845.03	225.99
845.34	225.98
845.65	225.95
845.97	225.99
846.28	225.97
846.60	226.01
846.91	225.98
847.22	225.98
847.54	226.02
847.85	226.08
848.16	226.07
848.48	226.06
848.79	226.09
849.10	226.14
849.42	226.18
849.73	226.10
850.04	226.06
850.36	226.02
850.67	226.04
850.98	226.05
851.30	226.05
851.61	226.05
851.92	226.06
852.23	226.11
852.55	226.09
852.86	226.08
853.17	226.07
853.49	226.08
853.80	226.12
854.11	226.10
854.42	226.10
854.74	226.09
855.05	226.09
855.36	226.09
855.67	226.09
855.99	226.04
856.30	226.17
856.61	226.20
856.92	226.22
857.23	226.22
857.55	226.18
857.86	226.15
858.17	226.16
858.48	226.12
858.79	226.07
859.11	226.07
859.42	226.07
859.73	226.06
860.04	226.03
860.35	225.97
860.66	225.92
860.98	225.88
861.29	225.88
861.60	225.83
861.91	225.79
862.22	225.75
862.53	225.75
862.84	225.59
863.16	225.60
863.47	225.55
863.78	225.52
864.09	225.53
864.40	225.55
864.71	225.55
865.02	225.53
865.33	225.52
865.64	225.50
865.95	225.50
866.27	225.54
866.58	225.54
866.89	225.54
867.20	225.56
867.51	225.54
867.82	225.48
868.13	225.53
868.44	225.51
868.75	225.50
869.06	225.46
869.37	225.49
869.68	225.43
869.99	225.43
870.30	225.43
870.61	225.42
870.92	225.40
871.23	225.37
871.54	225.39
871.85	225.39
872.16	225.36
872.47	225.33
872.78	225.24
873.09	225.22
873.40	225.21
873.71	225.20
874.02	225.20
874.33	225.22
874.64	225.17
874.95	225.18
875.26	225.15
875.56	225.12
875.87	225.08
876.18	225.08
876.49	225.18
876.80	225.16
877.11	225.15
877.42	225.14
877.73	225.14
878.04	225.10
878.35	225.12
878.66	225.12
878.96	225.08
879.27	225.12
879.58	225.14
879.89	225.12
880.20	225.14
880.51	225.13
880.82	225.15
881.12	225.17
881.43	225.16
881.74	225.15
882.05	225.20
882.36	225.25
882.67	225.26
882.97	225.15
883.28	225.14
883.59	225.12
883.90	225.13
884.21	225.19
884.51	225.18
884.82	225.19
885.13	225.24
885.44	225.29
885.74	225.26
886.05	225.27
886.36	225.28
886.67	225.26
886.98	225.33
887.28	225.35
887.59	225.39
887.90	225.39
888.20	225.44
888.51	225.44
888.82	225.44
889.13	225.45
889.43	225.56
889.74	225.58
890.05	225.60
890.35	225.61
890.66	225.59
890.97	225.62
891.28	225.58
891.58	225.56
891.89	225.58
892.20	225.60
892.50	225.59
892.81	225.58
893.12	225.60
893.42	225.55
893.73	225.55
894.04	225.56
894.34	225.59
894.65	225.57
894.95	225.54
895.26	225.53
895.57	225.57
895.87	225.47
896.18	225.50
896.48	225.52
896.79	225.52
897.10	225.54
897.40	225.52
897.71	225.55
898.01	225.55
898.32	225.53
898.63	225.54
898.93	225.52
899.24	225.57
899.54	225.57
899.85	225.57
900.15	225.56
900.46	225.56
900.76	225.56
901.07	225.56
901.38	225.56
901.68	225.56
901.99	225.51
902.29	225.53
902.60	225.50
902.90	225.49
903.21	225.47
903.51	225.45
903.82	225.47
904.12	225.46
904.43	225.46
904.73	225.46
905.03	225.45
905.34	225.52
905.64	225.47
905.95	225.48
906.25	225.47
906.56	225.43
906.86	225.37
907.17	225.36
907.47	225.36
907.77	225.37
908.08	225.34
908.38	225.35
908.69	225.31
908.99	225.31
909.30	225.28
909.60	225.26
909.90	225.25
910.21	225.22
910.51	225.20
910.81	225.18
911.12	225.15
911.42	225.14
911.73	225.02
912.03	225.00
912.33	224.99
912.64	224.96
912.94	224.94
913.24	224.93
913.55	224.89
913.85	224.87
914.15	224.87
914.46	224.88
914.76	224.83
915.06	224.86
915.37	224.84
915.67	224.83
915.97	224.83
916.27	224.83
916.58	224.83
916.88	224.84
917.18	224.85
917.49	224.94
917.79	224.92
918.09	224.99
918.39	225.02
918.70	225.00
919.00	225.01
919.30	225.06
919.60	225.07
919.91	225.06
920.21	225.09
920.51	225.04
920.81	225.03
921.12	225.07
921.42	225.03
921.72	225.05
922.02	225.08
922.32	225.10
922.63	225.10
922.93	225.16
923.23	225.15
923.53	225.13
923.83	225.08
924.13	225.10
924.44	225.07
924.74	225.11
925.04	225.18
925.34	225.18
925.64	225.14
925.94	225.12
926.24	225.21
926.55	225.18
926.85	225.19
927.15	225.21
927.45	225.20
927.75	225.25
928.05	225.24
928.35	225.23
928.65	225.23
928.95	225.22
929.26	225.21
929.56	225.22
929.86	225.22
930.16	225.19
930.46	225.19
930.76	225.20
931.06	225.15
931.36	225.09
931.66	225.14
931.96	225.17
932.26	225.21
932.56	225.11
932.86	225.14
933.16	225.17
933.46	225.19
933.76	225.19
934.06	225.19
934.36	225.22
934.66	225.23
934.96	225.24
935.26	225.27
935.56	225.27
935.86	225.23
936.16	225.22
936.46	225.23
936.76	225.24
937.06	225.23
937.36	225.21
937.66	225.26
937.96	225.23
938.26	225.18
938.56	225.20
938.86	225.23
939.16	225.23
939.46	225.26
939.76	225.25
940.06	225.25
940.35	225.22
940.65	225.19
940.95	225.21
941.25	225.18
941.55	225.18
941.85	225.19
942.15	225.23
942.45	225.26
942.75	225.27
943.04	225.29
943.34	225.28
943.64	225.31
943.94	225.28
944.24	225.28
944.54	225.29
944.84	225.28
945.13	225.27
945.43	225.24
945.73	225.20
946.03	225.21
946.33	225.25
946.62	225.23
946.92	225.23
947.22	225.23
947.52	225.26
947.82	225.24
948.11	225.24
948.41	225.22
948.71	225.17
949.01	225.18
949.31	225.12
949.60	225.12
949.90	225.13
950.20	225.12
950.50	225.10
950.79	225.09
951.09	225.08
951.39	225.09
951.69	225.11
951.98	225.13
952.28	225.11
952.58	225.05
952.87	225.07
953.17	225.09
953.47	225.06
953.76	225.03
954.06	225.00
954.36	224.97
954.66	224.97
954.95	225.01
955.25	225.00
955.55	225.03
955.84	225.00
956.14	225.00
956.44	224.99
956.73	224.96
957.03	224.98
957.32	224.99
957.62	224.98
957.92	224.99
958.21	224.99
958.51	225.12
958.81	225.16
959.10	225.17
959.40	225.14
959.69	225.15
959.99	225.16
960.29	225.17
960.58	225.17
960.88	225.19
961.17	225.17
961.47	225.21
961.76	225.23
962.06	225.27
962.36	225.25
962.65	225.26
962.95	225.29
963.24	225.30
963.54	225.29
963.83	225.29
964.13	225.28
964.42	225.25
964.72	225.13
965.01	225.09
965.31	225.06
965.60	225.07
965.90	225.15
966.19	225.11
966.49	225.14
966.78	225.15
967.08	225.14
967.37	225.14
967.67	225.11
967.96	225.11
968.26	225.10
968.55	225.14
968.85	225.16
969.14	225.17
969.43	225.13
969.73	225.14
970.02	225.14
970.32	225.17
970.61	225.17
970.91	225.15
971.20	225.17
971.49	225.17
971.79	225.15
972.08	225.05
972.38	225.05
972.67	225.02
972.96	225.01
973.26	224.99
973.55	225.02
973.85	224.99
974.14	224.99
974.43	224.97
974.73	224.92
975.02	224.88
975.31	224.88
975.61	224.91
975.90	224.85
976.19	224.83
976.49	224.79
976.78	224.83
977.07	224.79
977.37	224.78
977.66	224.78
977.95	224.79
978.24	224.79
978.54	224.83
978.83	224.80
979.12	224.78
979.42	224.79
979.71	224.76
980.00	224.78
980.29	224.79
980.59	224.78
980.88	224.82
981.17	224.81
981.46	224.80
981.76	224.82
982.05	224.86
982.34	224.87
982.63	224.91
982.93	224.87
983.22	224.92
983.51	224.91
983.80	224.94
984.09	224.95
984.39	224.97
984.68	224.96
984.97	225.02
985.26	225.01
985.55	224.98
985.85	224.96
986.14	224.97
986.43	224.96
986.72	224.94
987.01	224.91
987.30	224.94
987.59	224.92
987.89	224.92
988.18	224.91
988.47	224.89
988.76	224.87
989.05	224.88
989.34	224.90
989.63	224.95
989.92	224.94
990.22	224.95
990.51	224.96
990.80	224.98
991.09	224.97
991.38	225.00
991.67	225.04
991.96	225.02
992.25	225.02
992.54	225.02
992.83	225.03
993.12	225.00
993.41	225.01
993.70	225.05
993.99	225.08
994.28	225.06
994.58	225.10
994.87	225.07
995.16	225.08
995.45	225.05
995.74	225.03
996.03	225.03
996.32	225.03
996.61	225.05
996.90	225.02
997.19	225.01
997.48	225.00
997.77	224.97
998.06	224.99
998.34	225.00
998.63	225.00
998.92	225.02
999.21	225.08
999.50	225.09
999.79	225.09
1000.08	225.09
1000.37	225.11
1000.66	225.10
1000.95	225.14
1001.24	225.14
1001.53	225.14
1001.82	225.12
1002.11	225.11
1002.40	225.12
1002.68	225.15
1002.97	225.23
1003.26	225.23
1003.55	225.24
1003.84	225.23
1004.13	225.28
1004.42	225.26
1004.71	225.27
1004.99	225.25
1005.28	225.27
1005.57	225.25
1005.86	225.25
1006.15	225.21
1006.44	225.18
1006.72	225.19
1007.01	225.16
1007.30	225.16
1007.59	225.18
1007.88	225.21
1008.17	225.21
1008.45	225.17
1008.74	225.13
1009.03	225.08
1009.32	225.09
1009.60	225.10
1009.89	225.12
1010.18	225.08
1010.47	225.07
1010.76	225.07
1011.04	225.05
1011.33	225.04
1011.62	225.03
1011.91	225.03
1012.19	225.06
1012.48	225.08
1012.77	225.09
1013.05	225.13
1013.34	225.15
1013.63	225.12
1013.92	225.12
1014.20	225.11
1014.49	225.12
1014.78	225.11
1015.06	225.05
1015.35	225.04
1015.64	225.03
1015.92	225.03
1016.21	225.05
1016.50	225.02
1016.78	225.02
1017.07	225.03
1017.36	225.00
1017.64	225.02
1017.93	225.01
1018.22	224.99
1018.50	224.98
1018.79	224.95
1019.08	224.93
1019.36	224.93
1019.65	224.93
1019.93	224.93
1020.22	224.95
1020.51	225.00
1020.79	225.00
1021.08	224.83
1021.36	224.70
1021.65	224.71
1021.94	225.15
1022.22	225.58
1022.51	224.88
1022.79	225.21
1023.08	225.03
1023.36	225.90
1023.65	224.89
>>>>>End Processed Spectral Data<<<<<
