SpectraSuite Data File
++++++++++++++++++++++++++++++++++++
Date: Fri Feb 01 16:50:46 EST 2013
User: group
Dark Spectrum Present: No
Reference Spectrum Present: No
Number of Sampled Component Spectra: 1
Spectrometers: USB2E7196
Integration Time (usec): 35000 (USB2E7196)
Spectra Averaged: 100 (USB2E7196)
Boxcar Smoothing: 10 (USB2E7196)
Correct for Electrical Dark: No (USB2E7196)
Strobe/Lamp Enabled: No (USB2E7196)
Correct for Detector Non-linearity: No (USB2E7196)
Correct for Stray Light: No (USB2E7196)
Number of Pixels in Processed Spectrum: 2048
>>>>>Begin Processed Spectral Data<<<<<
339.09	0.00
339.48	212.58
339.86	214.88
340.24	215.82
340.63	217.01
341.01	220.12
341.39	220.27
341.78	221.48
342.16	222.12
342.54	222.61
342.93	211.65
343.31	222.35
343.69	222.92
344.07	223.38
344.46	223.84
344.84	224.26
345.22	224.50
345.60	224.74
345.99	224.94
346.37	225.09
346.75	225.21
347.13	225.29
347.52	225.30
347.90	225.34
348.28	225.40
348.66	225.43
349.05	225.44
349.43	225.45
349.81	225.48
350.19	225.50
350.57	225.55
350.96	225.57
351.34	225.63
351.72	225.71
352.10	225.80
352.48	225.84
352.87	225.89
353.25	225.95
353.63	226.02
354.01	226.07
354.39	226.14
354.77	226.21
355.15	226.30
355.54	226.38
355.92	226.42
356.30	226.45
356.68	226.59
357.06	226.67
357.44	226.76
357.82	226.80
358.20	226.88
358.58	226.94
358.97	227.01
359.35	227.12
359.73	227.20
360.11	227.25
360.49	227.32
360.87	227.37
361.25	227.42
361.63	227.49
362.01	227.52
362.39	227.56
362.77	227.60
363.15	227.62
363.53	227.65
363.91	227.67
364.29	227.69
364.67	227.64
365.05	227.64
365.43	227.65
365.81	227.68
366.19	227.71
366.57	227.78
366.95	227.78
367.33	227.72
367.71	227.70
368.09	227.72
368.47	227.71
368.85	227.67
369.23	227.68
369.61	227.62
369.99	227.64
370.37	227.61
370.75	227.62
371.13	227.56
371.51	227.50
371.89	227.48
372.27	227.47
372.65	227.40
373.03	227.36
373.41	227.32
373.78	227.28
374.16	227.18
374.54	227.06
374.92	227.01
375.30	226.99
375.68	226.92
376.06	226.86
376.44	226.77
376.82	226.76
377.19	226.69
377.57	226.62
377.95	226.55
378.33	226.52
378.71	226.44
379.09	226.42
379.47	226.39
379.84	226.32
380.22	226.25
380.60	226.16
380.98	226.08
381.36	225.98
381.73	225.92
382.11	225.90
382.49	225.84
382.87	225.79
383.25	225.68
383.62	225.76
384.00	225.70
384.38	225.66
384.76	225.58
385.13	225.56
385.51	225.53
385.89	225.47
386.27	225.40
386.64	225.37
387.02	225.27
387.40	225.21
387.78	225.17
388.15	225.14
388.53	225.13
388.91	225.17
389.29	225.14
389.66	225.11
390.04	225.07
390.42	225.07
390.79	225.03
391.17	225.07
391.55	224.93
391.92	224.89
392.30	224.86
392.68	224.84
393.05	224.87
393.43	224.86
393.81	224.84
394.18	224.82
394.56	224.80
394.94	224.89
395.31	224.91
395.69	225.00
396.06	225.02
396.44	225.05
396.82	225.05
397.19	225.14
397.57	225.17
397.95	225.22
398.32	225.25
398.70	225.32
399.07	225.38
399.45	225.43
399.82	225.50
400.20	225.56
400.58	225.63
400.95	225.64
401.33	225.73
401.70	225.89
402.08	225.99
402.45	226.06
402.83	226.16
403.20	226.24
403.58	226.27
403.95	226.38
404.33	226.48
404.71	226.58
405.08	226.73
405.46	226.86
405.83	227.00
406.21	227.13
406.58	227.28
406.96	227.42
407.33	227.59
407.70	227.78
408.08	228.03
408.45	228.28
408.83	228.51
409.20	228.70
409.58	228.87
409.95	229.10
410.33	229.35
410.70	229.57
411.08	229.90
411.45	230.23
411.82	230.54
412.20	230.92
412.57	231.35
412.95	231.63
413.32	232.02
413.69	232.41
414.07	232.83
414.44	233.29
414.82	233.77
415.19	234.31
415.56	234.82
415.94	235.36
416.31	236.00
416.68	236.58
417.06	237.26
417.43	237.91
417.81	238.71
418.18	239.49
418.55	240.34
418.93	241.19
419.30	242.04
419.67	242.98
420.04	243.89
420.42	244.82
420.79	245.96
421.16	247.12
421.54	248.28
421.91	249.46
422.28	250.72
422.66	252.03
423.03	253.33
423.40	254.71
423.77	256.11
424.15	257.50
424.52	259.00
424.89	260.62
425.26	262.18
425.64	263.62
426.01	265.22
426.38	266.85
426.75	268.54
427.13	270.27
427.50	272.05
427.87	273.91
428.24	275.78
428.61	277.58
428.99	279.51
429.36	281.65
429.73	283.74
430.10	285.74
430.47	287.80
430.85	289.91
431.22	292.09
431.59	294.49
431.96	296.70
432.33	299.16
432.70	301.53
433.08	304.31
433.45	306.97
433.82	309.57
434.19	312.46
434.56	315.23
434.93	317.85
435.30	320.44
435.68	323.31
436.05	326.15
436.42	328.93
436.79	331.42
437.16	334.06
437.53	336.83
437.90	339.64
438.27	342.36
438.64	345.16
439.01	347.75
439.38	349.91
439.75	352.08
440.13	354.60
440.50	356.89
440.87	358.72
441.24	360.59
441.61	362.72
441.98	364.17
442.35	365.92
442.72	367.79
443.09	369.64
443.46	370.59
443.83	371.18
444.20	371.66
444.57	372.50
444.94	372.83
445.31	373.24
445.68	373.63
446.05	373.72
446.42	373.34
446.79	372.92
447.16	372.52
447.53	372.21
447.90	371.03
448.27	369.89
448.64	368.35
449.01	367.27
449.37	365.35
449.74	363.51
450.11	361.30
450.48	358.85
450.85	356.38
451.22	354.29
451.59	352.26
451.96	350.36
452.33	347.77
452.70	345.42
453.07	342.55
453.43	339.62
453.80	336.87
454.17	334.25
454.54	331.76
454.91	329.09
455.28	326.44
455.65	323.98
456.02	321.58
456.38	319.42
456.75	316.73
457.12	314.49
457.49	312.24
457.86	310.11
458.23	308.29
458.59	306.19
458.96	304.15
459.33	302.29
459.70	300.43
460.07	298.97
460.43	297.28
460.80	295.70
461.17	294.29
461.54	292.85
461.91	291.41
462.27	289.98
462.64	288.67
463.01	287.32
463.38	286.03
463.74	284.65
464.11	283.49
464.48	282.51
464.85	281.42
465.21	280.61
465.58	279.69
465.95	278.55
466.32	277.69
466.68	276.77
467.05	275.89
467.42	274.98
467.78	274.05
468.15	273.15
468.52	272.51
468.88	271.65
469.25	270.83
469.62	270.21
469.98	269.49
470.35	268.88
470.72	268.31
471.08	267.69
471.45	267.19
471.82	266.67
472.18	266.04
472.55	265.57
472.92	265.01
473.28	264.56
473.65	264.13
474.02	263.70
474.38	263.32
474.75	263.02
475.11	262.71
475.48	262.44
475.85	262.22
476.21	261.97
476.58	261.79
476.94	261.69
477.31	261.52
477.67	261.42
478.04	261.35
478.41	261.29
478.77	261.32
479.14	261.25
479.50	261.27
479.87	261.37
480.23	261.51
480.60	261.57
480.96	261.70
481.33	261.91
481.69	262.10
482.06	262.33
482.42	262.56
482.79	262.83
483.15	263.17
483.52	263.58
483.88	263.92
484.25	264.33
484.61	264.75
484.98	265.24
485.34	265.80
485.71	266.38
486.07	267.03
486.44	267.61
486.80	268.31
487.17	269.04
487.53	269.84
487.90	270.70
488.26	271.64
488.62	272.63
488.99	273.64
489.35	274.67
489.72	275.79
490.08	276.99
490.44	278.21
490.81	279.53
491.17	280.88
491.54	282.40
491.90	283.97
492.26	285.61
492.63	287.35
492.99	289.13
493.36	291.02
493.72	293.02
494.08	295.14
494.45	297.41
494.81	299.77
495.17	302.23
495.54	304.77
495.90	307.47
496.26	310.27
496.63	313.21
496.99	316.36
497.35	319.63
497.72	323.07
498.08	326.59
498.44	330.23
498.80	334.15
499.17	338.17
499.53	342.28
499.89	346.67
500.26	351.13
500.62	355.76
500.98	360.71
501.34	365.81
501.71	371.13
502.07	376.51
502.43	382.12
502.79	387.91
503.16	393.99
503.52	400.25
503.88	406.66
504.24	413.30
504.60	420.14
504.97	427.22
505.33	434.43
505.69	442.13
506.05	449.89
506.41	457.72
506.78	465.86
507.14	474.26
507.50	482.88
507.86	491.87
508.22	501.05
508.59	510.19
508.95	519.58
509.31	529.28
509.67	539.38
510.03	549.62
510.39	560.10
510.75	570.78
511.12	581.63
511.48	592.78
511.84	604.14
512.20	615.58
512.56	627.47
512.92	639.64
513.28	651.87
513.64	664.23
514.00	676.90
514.37	689.67
514.73	702.70
515.09	715.68
515.45	728.80
515.81	742.22
516.17	756.02
516.53	770.15
516.89	784.25
517.25	798.22
517.61	812.49
517.97	826.82
518.33	841.08
518.69	855.66
519.05	870.53
519.41	885.54
519.77	900.93
520.13	916.18
520.49	931.25
520.85	946.44
521.21	961.99
521.57	977.92
521.93	993.49
522.29	1009.54
522.65	1025.58
523.01	1041.71
523.37	1057.54
523.73	1073.54
524.09	1089.36
524.45	1105.40
524.81	1121.82
525.17	1138.32
525.53	1154.83
525.89	1171.51
526.25	1188.19
526.61	1204.39
526.97	1220.90
527.33	1237.06
527.68	1253.42
528.04	1269.71
528.40	1286.01
528.76	1302.87
529.12	1319.18
529.48	1335.89
529.84	1351.71
530.20	1368.08
530.56	1384.73
530.91	1401.96
531.27	1418.55
531.63	1434.74
531.99	1451.13
532.35	1466.90
532.71	1482.64
533.07	1498.75
533.42	1514.47
533.78	1530.27
534.14	1546.28
534.50	1561.39
534.86	1577.09
535.21	1592.10
535.57	1607.85
535.93	1623.16
536.29	1637.61
536.65	1652.49
537.00	1666.94
537.36	1682.06
537.72	1696.30
538.08	1710.47
538.44	1724.04
538.79	1737.82
539.15	1751.31
539.51	1764.89
539.87	1778.97
540.22	1792.61
540.58	1806.21
540.94	1819.21
541.29	1831.80
541.65	1844.33
542.01	1857.33
542.37	1869.48
542.72	1881.62
543.08	1893.35
543.44	1905.64
543.79	1916.89
544.15	1927.78
544.51	1939.33
544.87	1950.09
545.22	1960.85
545.58	1970.93
545.94	1980.48
546.29	1989.95
546.65	1999.75
547.01	2008.80
547.36	2017.39
547.72	2025.69
548.07	2033.47
548.43	2041.55
548.79	2049.52
549.14	2056.95
549.50	2064.10
549.86	2071.69
550.21	2078.95
550.57	2086.04
550.92	2092.46
551.28	2099.52
551.64	2106.56
551.99	2112.89
552.35	2119.08
552.70	2125.22
553.06	2131.40
553.41	2137.75
553.77	2143.83
554.13	2149.79
554.48	2156.04
554.84	2161.70
555.19	2166.80
555.55	2171.95
555.90	2176.50
556.26	2181.51
556.61	2186.13
556.97	2190.55
557.32	2194.68
557.68	2198.90
558.03	2203.12
558.39	2206.87
558.74	2211.37
559.10	2215.15
559.45	2218.92
559.81	2223.06
560.16	2226.85
560.52	2229.94
560.87	2233.27
561.23	2235.91
561.58	2238.85
561.94	2241.33
562.29	2243.51
562.64	2246.43
563.00	2249.15
563.35	2252.59
563.71	2255.64
564.06	2258.94
564.42	2262.03
564.77	2264.74
565.12	2267.24
565.48	2269.29
565.83	2271.37
566.19	2272.86
566.54	2273.81
566.89	2275.10
567.25	2275.95
567.60	2277.33
567.96	2279.21
568.31	2280.27
568.66	2281.69
569.02	2282.42
569.37	2282.81
569.72	2283.87
570.08	2284.11
570.43	2284.13
570.78	2283.80
571.14	2282.50
571.49	2281.23
571.84	2280.93
572.20	2280.06
572.55	2278.99
572.90	2277.37
573.26	2276.05
573.61	2274.37
573.96	2272.87
574.31	2270.10
574.67	2267.30
575.02	2263.85
575.37	2260.61
575.72	2257.01
576.08	2253.57
576.43	2250.39
576.78	2246.96
577.13	2243.91
577.49	2240.90
577.84	2237.66
578.19	2234.15
578.54	2230.66
578.90	2226.85
579.25	2221.34
579.60	2216.36
579.95	2211.56
580.30	2206.77
580.66	2201.66
581.01	2196.81
581.36	2192.12
581.71	2188.16
582.06	2183.91
582.42	2179.61
582.77	2174.53
583.12	2170.25
583.47	2165.82
583.82	2161.03
584.17	2155.89
584.53	2150.57
584.88	2145.17
585.23	2139.58
585.58	2134.05
585.93	2128.79
586.28	2123.97
586.63	2119.17
586.98	2114.18
587.34	2109.54
587.69	2104.84
588.04	2099.88
588.39	2094.38
588.74	2087.99
589.09	2081.82
589.44	2075.06
589.79	2069.16
590.14	2063.56
590.49	2056.95
590.84	2050.81
591.19	2044.86
591.54	2038.69
591.89	2031.55
592.25	2024.91
592.60	2017.78
592.95	2010.47
593.30	2003.24
593.65	1995.85
594.00	1988.85
594.35	1981.75
594.70	1973.79
595.05	1966.77
595.40	1959.58
595.75	1952.19
596.10	1946.25
596.45	1939.68
596.80	1933.68
597.15	1927.27
597.50	1920.40
597.85	1914.05
598.19	1907.42
598.54	1900.64
598.89	1893.97
599.24	1888.18
599.59	1881.64
599.94	1875.47
600.29	1869.32
600.64	1862.76
600.99	1855.40
601.34	1848.69
601.69	1841.74
602.04	1835.07
602.39	1827.78
602.74	1821.00
603.08	1814.35
603.43	1807.52
603.78	1800.18
604.13	1793.09
604.48	1785.84
604.83	1779.16
605.18	1772.48
605.53	1764.58
605.87	1756.41
606.22	1749.21
606.57	1741.21
606.92	1733.84
607.27	1726.89
607.62	1720.01
607.96	1712.88
608.31	1706.39
608.66	1698.83
609.01	1691.53
609.36	1684.03
609.70	1676.10
610.05	1668.16
610.40	1660.58
610.75	1652.34
611.10	1644.84
611.44	1636.38
611.79	1628.40
612.14	1619.69
612.49	1610.48
612.83	1602.12
613.18	1594.01
613.53	1585.94
613.88	1577.42
614.22	1569.21
614.57	1560.50
614.92	1552.40
615.27	1544.85
615.61	1536.55
615.96	1528.57
616.31	1520.78
616.65	1513.40
617.00	1505.87
617.35	1498.19
617.70	1489.97
618.04	1481.50
618.39	1473.24
618.74	1465.70
619.08	1457.44
619.43	1449.73
619.78	1442.78
620.12	1435.80
620.47	1428.42
620.82	1420.31
621.16	1412.88
621.51	1405.22
621.85	1397.67
622.20	1389.20
622.55	1380.75
622.89	1372.90
623.24	1365.22
623.59	1357.81
623.93	1350.36
624.28	1343.10
624.62	1335.68
624.97	1328.42
625.32	1321.63
625.66	1314.67
626.01	1307.53
626.35	1300.15
626.70	1292.51
627.04	1284.83
627.39	1276.89
627.73	1269.38
628.08	1262.56
628.43	1255.42
628.77	1248.22
629.12	1240.62
629.46	1233.52
629.81	1226.18
630.15	1218.85
630.50	1211.56
630.84	1203.58
631.19	1195.57
631.53	1188.09
631.88	1180.45
632.22	1172.85
632.57	1165.50
632.91	1157.95
633.26	1150.51
633.60	1143.16
633.95	1136.05
634.29	1128.92
634.64	1122.33
634.98	1115.11
635.32	1107.82
635.67	1101.12
636.01	1094.46
636.36	1087.78
636.70	1081.17
637.05	1074.59
637.39	1068.30
637.73	1061.72
638.08	1055.76
638.42	1049.83
638.77	1043.41
639.11	1036.90
639.45	1030.50
639.80	1023.96
640.14	1017.53
640.49	1011.10
640.83	1004.78
641.17	998.64
641.52	992.40
641.86	985.90
642.20	980.02
642.55	973.75
642.89	967.39
643.23	960.77
643.58	954.96
643.92	948.86
644.26	942.84
644.61	936.72
644.95	930.76
645.29	924.13
645.64	917.38
645.98	911.02
646.32	905.14
646.66	899.15
647.01	893.34
647.35	887.74
647.69	881.83
648.04	876.32
648.38	870.42
648.72	864.48
649.06	858.50
649.41	852.59
649.75	846.69
650.09	840.74
650.43	834.96
650.78	828.89
651.12	822.92
651.46	817.18
651.80	811.46
652.14	806.07
652.49	800.75
652.83	795.52
653.17	789.91
653.51	784.17
653.85	778.78
654.20	773.20
654.54	767.15
654.88	761.42
655.22	755.44
655.56	749.75
655.90	744.24
656.25	739.04
656.59	733.73
656.93	728.61
657.27	723.46
657.61	718.04
657.95	712.93
658.29	707.90
658.64	702.68
658.98	697.36
659.32	691.87
659.66	686.69
660.00	681.42
660.34	676.40
660.68	671.54
661.02	666.52
661.36	661.76
661.70	657.26
662.05	652.95
662.39	648.75
662.73	644.38
663.07	639.99
663.41	635.50
663.75	631.01
664.09	626.44
664.43	622.07
664.77	618.01
665.11	613.78
665.45	609.53
665.79	605.46
666.13	601.39
666.47	597.31
666.81	593.14
667.15	589.08
667.49	585.22
667.83	581.42
668.17	577.52
668.51	573.50
668.85	569.44
669.19	565.57
669.53	561.68
669.87	557.77
670.21	554.06
670.55	550.41
670.89	547.02
671.23	543.64
671.57	540.09
671.91	536.50
672.25	532.99
672.58	529.55
672.92	526.15
673.26	522.98
673.60	519.91
673.94	516.86
674.28	513.88
674.62	510.96
674.96	507.85
675.30	504.93
675.64	502.03
675.97	499.28
676.31	496.44
676.65	493.52
676.99	490.90
677.33	488.06
677.67	485.26
678.01	482.22
678.34	479.26
678.68	476.45
679.02	473.72
679.36	470.98
679.70	468.26
680.04	465.51
680.37	462.63
680.71	459.79
681.05	457.14
681.39	454.49
681.73	451.81
682.06	449.29
682.40	446.74
682.74	444.18
683.08	441.61
683.42	439.02
683.75	436.56
684.09	433.96
684.43	431.53
684.77	429.06
685.10	426.67
685.44	424.36
685.78	422.02
686.12	419.69
686.45	417.39
686.79	415.08
687.13	412.87
687.46	410.67
687.80	408.53
688.14	406.27
688.48	404.22
688.81	402.00
689.15	399.79
689.49	397.69
689.82	395.60
690.16	393.52
690.50	391.54
690.83	389.56
691.17	387.58
691.51	385.62
691.84	383.75
692.18	381.84
692.52	379.84
692.85	377.88
693.19	376.02
693.52	374.13
693.86	372.25
694.20	370.40
694.53	368.58
694.87	366.69
695.21	364.92
695.54	363.03
695.88	361.28
696.21	359.58
696.55	357.86
696.88	356.16
697.22	354.50
697.56	352.83
697.89	351.18
698.23	349.52
698.56	347.93
698.90	346.35
699.23	344.67
699.57	343.10
699.90	341.55
700.24	339.98
700.58	338.43
700.91	336.99
701.25	335.61
701.58	334.29
701.92	332.93
702.25	331.54
702.59	330.18
702.92	328.86
703.26	327.55
703.59	326.23
703.93	325.04
704.26	323.80
704.60	322.53
704.93	321.25
705.26	320.01
705.60	318.79
705.93	317.59
706.27	316.57
706.60	315.52
706.94	314.46
707.27	313.30
707.61	312.23
707.94	311.23
708.27	310.13
708.61	309.01
708.94	308.01
709.28	307.01
709.61	306.06
709.94	305.08
710.28	304.11
710.61	303.15
710.95	302.03
711.28	301.14
711.61	300.21
711.95	299.28
712.28	298.34
712.61	297.37
712.95	296.44
713.28	295.55
713.61	294.67
713.95	293.80
714.28	293.01
714.61	292.22
714.95	291.33
715.28	290.48
715.61	289.63
715.95	288.76
716.28	287.90
716.61	287.07
716.95	286.26
717.28	285.49
717.61	284.76
717.94	284.07
718.28	283.28
718.61	282.52
718.94	281.85
719.27	281.21
719.61	280.57
719.94	279.92
720.27	279.23
720.60	278.56
720.94	277.93
721.27	277.33
721.60	276.74
721.93	276.16
722.27	275.63
722.60	275.06
722.93	274.51
723.26	274.02
723.59	273.43
723.93	272.88
724.26	272.33
724.59	271.69
724.92	271.15
725.25	270.63
725.59	270.15
725.92	269.62
726.25	269.13
726.58	268.63
726.91	268.15
727.24	267.70
727.57	267.26
727.91	266.74
728.24	266.24
728.57	265.73
728.90	265.24
729.23	264.76
729.56	264.26
729.89	263.81
730.22	263.30
730.55	262.87
730.89	262.40
731.22	261.93
731.55	261.52
731.88	261.08
732.21	260.60
732.54	260.15
732.87	259.71
733.20	259.29
733.53	258.90
733.86	258.52
734.19	258.08
734.52	257.67
734.85	257.36
735.18	256.97
735.51	256.58
735.84	256.24
736.17	255.87
736.50	255.53
736.83	255.29
737.16	254.91
737.49	254.54
737.82	254.21
738.15	253.89
738.48	253.58
738.81	253.23
739.14	252.91
739.47	252.57
739.80	252.26
740.13	251.94
740.46	251.61
740.79	251.25
741.12	250.95
741.45	250.64
741.78	250.30
742.11	249.97
742.44	249.66
742.77	249.36
743.10	249.06
743.43	248.74
743.75	248.35
744.08	248.26
744.41	248.00
744.74	247.70
745.07	247.38
745.40	247.15
745.73	246.96
746.06	246.68
746.39	246.43
746.71	246.18
747.04	245.89
747.37	245.62
747.70	245.42
748.03	245.17
748.36	244.96
748.68	244.73
749.01	244.53
749.34	244.33
749.67	244.09
750.00	243.87
750.33	243.73
750.65	243.51
750.98	243.17
751.31	242.97
751.64	242.79
751.97	242.66
752.29	242.41
752.62	242.12
752.95	241.93
753.28	241.74
753.60	241.52
753.93	241.36
754.26	241.16
754.59	240.94
754.91	240.73
755.24	240.53
755.57	240.32
755.90	240.11
756.22	239.94
756.55	239.72
756.88	239.49
757.20	239.24
757.53	239.02
757.86	238.83
758.19	238.72
758.51	238.52
758.84	238.30
759.17	238.15
759.49	238.00
759.82	237.89
760.15	237.75
760.47	237.61
760.80	237.47
761.13	237.38
761.45	237.18
761.78	237.03
762.11	236.89
762.43	236.74
762.76	236.61
763.08	236.44
763.41	236.32
763.74	236.20
764.06	236.08
764.39	235.96
764.71	235.83
765.04	235.64
765.37	235.54
765.69	235.43
766.02	235.30
766.34	235.19
766.67	235.01
767.00	234.91
767.32	234.85
767.65	234.76
767.97	234.62
768.30	234.54
768.62	234.44
768.95	234.32
769.27	234.23
769.60	234.14
769.92	234.05
770.25	233.94
770.57	233.82
770.90	233.70
771.22	233.61
771.55	233.48
771.87	233.37
772.20	233.27
772.52	233.23
772.85	233.25
773.17	233.18
773.50	233.09
773.82	232.97
774.15	232.82
774.47	232.69
774.80	232.58
775.12	232.49
775.45	232.36
775.77	232.25
776.09	232.15
776.42	232.06
776.74	231.97
777.07	231.90
777.39	231.84
777.72	231.76
778.04	231.66
778.36	231.58
778.69	231.55
779.01	231.49
779.33	231.36
779.66	231.17
779.98	231.05
780.31	231.00
780.63	230.99
780.95	230.93
781.28	230.85
781.60	230.79
781.92	230.73
782.25	230.67
782.57	230.60
782.89	230.54
783.22	230.46
783.54	230.39
783.86	230.35
784.19	230.29
784.51	230.26
784.83	230.23
785.16	230.20
785.48	230.13
785.80	230.07
786.12	230.03
786.45	229.99
786.77	229.97
787.09	229.90
787.42	229.80
787.74	229.76
788.06	229.70
788.38	229.65
788.71	229.60
789.03	229.58
789.35	229.58
789.67	229.52
789.99	229.47
790.32	229.44
790.64	229.38
790.96	229.44
791.28	229.38
791.61	229.30
791.93	229.27
792.25	229.24
792.57	229.26
792.89	229.17
793.21	229.13
793.54	229.07
793.86	229.02
794.18	228.97
794.50	228.92
794.82	228.89
795.14	228.87
795.47	228.87
795.79	228.83
796.11	228.76
796.43	228.75
796.75	228.75
797.07	228.72
797.39	228.66
797.71	228.54
798.04	228.50
798.36	228.50
798.68	228.45
799.00	228.42
799.32	228.34
799.64	228.33
799.96	228.29
800.28	228.28
800.60	228.26
800.92	228.28
801.24	228.27
801.56	228.24
801.89	228.19
802.21	228.17
802.53	228.11
802.85	228.09
803.17	228.13
803.49	228.08
803.81	228.07
804.13	228.03
804.45	228.01
804.77	228.01
805.09	227.96
805.41	227.95
805.73	227.92
806.05	227.91
806.37	227.87
806.69	227.85
807.01	227.84
807.33	227.82
807.65	227.75
807.97	227.78
808.28	227.78
808.60	227.77
808.92	227.74
809.24	227.80
809.56	227.78
809.88	227.71
810.20	227.71
810.52	227.69
810.84	227.68
811.16	227.63
811.48	227.56
811.80	227.58
812.12	227.55
812.43	227.56
812.75	227.49
813.07	227.47
813.39	227.43
813.71	227.38
814.03	227.34
814.35	227.30
814.67	227.22
814.98	227.16
815.30	227.15
815.62	227.06
815.94	226.97
816.26	226.96
816.58	226.92
816.89	226.92
817.21	226.86
817.53	226.82
817.85	226.82
818.17	226.81
818.48	226.72
818.80	226.72
819.12	226.67
819.44	226.66
819.76	226.64
820.07	226.62
820.39	226.57
820.71	226.60
821.03	226.60
821.34	226.57
821.66	226.59
821.98	226.58
822.30	226.60
822.61	226.63
822.93	226.55
823.25	226.52
823.57	226.50
823.88	226.50
824.20	226.49
824.52	226.49
824.83	226.48
825.15	226.48
825.47	226.50
825.79	226.47
826.10	226.45
826.42	226.44
826.74	226.46
827.05	226.49
827.37	226.48
827.69	226.46
828.00	226.46
828.32	226.44
828.64	226.42
828.95	226.49
829.27	226.50
829.58	226.53
829.90	226.53
830.22	226.52
830.53	226.50
830.85	226.49
831.17	226.49
831.48	226.46
831.80	226.44
832.11	226.42
832.43	226.40
832.75	226.42
833.06	226.50
833.38	226.48
833.69	226.47
834.01	226.47
834.32	226.48
834.64	226.48
834.96	226.46
835.27	226.44
835.59	226.38
835.90	226.35
836.22	226.36
836.53	226.35
836.85	226.31
837.16	226.42
837.48	226.40
837.79	226.40
838.11	226.42
838.42	226.46
838.74	226.45
839.05	226.48
839.37	226.45
839.68	226.35
840.00	226.30
840.31	226.31
840.63	226.30
840.94	226.27
841.26	226.27
841.57	226.27
841.88	226.28
842.20	226.25
842.51	226.21
842.83	226.21
843.14	226.34
843.46	226.36
843.77	226.27
844.08	226.30
844.40	226.26
844.71	226.25
845.03	226.23
845.34	226.23
845.65	226.20
845.97	226.17
846.28	226.19
846.60	226.21
846.91	226.16
847.22	226.14
847.54	226.16
847.85	226.14
848.16	226.10
848.48	226.10
848.79	226.15
849.10	226.18
849.42	226.16
849.73	226.03
850.04	226.02
850.36	225.94
850.67	225.93
850.98	225.93
851.30	225.90
851.61	225.88
851.92	225.84
852.23	225.88
852.55	225.92
852.86	225.91
853.17	225.90
853.49	225.92
853.80	225.91
854.11	225.89
854.42	225.89
854.74	225.88
855.05	225.84
855.36	225.77
855.67	225.76
855.99	225.74
856.30	225.84
856.61	225.85
856.92	225.89
857.23	225.87
857.55	225.88
857.86	225.86
858.17	225.86
858.48	225.85
858.79	225.78
859.11	225.80
859.42	225.80
859.73	225.79
860.04	225.75
860.35	225.71
860.66	225.67
860.98	225.66
861.29	225.70
861.60	225.68
861.91	225.69
862.22	225.66
862.53	225.64
862.84	225.54
863.16	225.55
863.47	225.55
863.78	225.52
864.09	225.51
864.40	225.51
864.71	225.54
865.02	225.52
865.33	225.51
865.64	225.46
865.95	225.44
866.27	225.51
866.58	225.54
866.89	225.57
867.20	225.57
867.51	225.57
867.82	225.53
868.13	225.59
868.44	225.58
868.75	225.62
869.06	225.65
869.37	225.65
869.68	225.59
869.99	225.58
870.30	225.60
870.61	225.61
870.92	225.60
871.23	225.56
871.54	225.62
871.85	225.65
872.16	225.69
872.47	225.68
872.78	225.64
873.09	225.66
873.40	225.65
873.71	225.71
874.02	225.72
874.33	225.69
874.64	225.68
874.95	225.67
875.26	225.62
875.56	225.59
875.87	225.55
876.18	225.59
876.49	225.70
876.80	225.71
877.11	225.73
877.42	225.78
877.73	225.76
878.04	225.76
878.35	225.77
878.66	225.75
878.96	225.75
879.27	225.71
879.58	225.69
879.89	225.69
880.20	225.66
880.51	225.64
880.82	225.66
881.12	225.64
881.43	225.66
881.74	225.67
882.05	225.66
882.36	225.68
882.67	225.68
882.97	225.57
883.28	225.56
883.59	225.52
883.90	225.50
884.21	225.52
884.51	225.49
884.82	225.47
885.13	225.50
885.44	225.46
885.74	225.48
886.05	225.49
886.36	225.48
886.67	225.45
886.98	225.50
887.28	225.52
887.59	225.50
887.90	225.48
888.20	225.46
888.51	225.52
888.82	225.48
889.13	225.51
889.43	225.56
889.74	225.55
890.05	225.53
890.35	225.52
890.66	225.51
890.97	225.48
891.28	225.46
891.58	225.44
891.89	225.43
892.20	225.41
892.50	225.37
892.81	225.37
893.12	225.37
893.42	225.33
893.73	225.31
894.04	225.32
894.34	225.34
894.65	225.34
894.95	225.27
895.26	225.30
895.57	225.29
895.87	225.22
896.18	225.23
896.48	225.25
896.79	225.24
897.10	225.26
897.40	225.27
897.71	225.27
898.01	225.26
898.32	225.29
898.63	225.29
898.93	225.27
899.24	225.29
899.54	225.30
899.85	225.29
900.15	225.30
900.46	225.28
900.76	225.28
901.07	225.28
901.38	225.30
901.68	225.30
901.99	225.25
902.29	225.25
902.60	225.26
902.90	225.26
903.21	225.25
903.51	225.22
903.82	225.25
904.12	225.31
904.43	225.30
904.73	225.28
905.03	225.29
905.34	225.41
905.64	225.35
905.95	225.33
906.25	225.34
906.56	225.35
906.86	225.38
907.17	225.39
907.47	225.42
907.77	225.42
908.08	225.39
908.38	225.42
908.69	225.43
908.99	225.44
909.30	225.40
909.60	225.43
909.90	225.45
910.21	225.41
910.51	225.37
910.81	225.39
911.12	225.42
911.42	225.41
911.73	225.33
912.03	225.36
912.33	225.39
912.64	225.39
912.94	225.34
913.24	225.32
913.55	225.30
913.85	225.28
914.15	225.28
914.46	225.28
914.76	225.25
915.06	225.24
915.37	225.20
915.67	225.21
915.97	225.22
916.27	225.19
916.58	225.18
916.88	225.18
917.18	225.17
917.49	225.22
917.79	225.24
918.09	225.25
918.39	225.27
918.70	225.24
919.00	225.23
919.30	225.28
919.60	225.29
919.91	225.27
920.21	225.27
920.51	225.28
920.81	225.28
921.12	225.34
921.42	225.33
921.72	225.33
922.02	225.36
922.32	225.36
922.63	225.38
922.93	225.47
923.23	225.49
923.53	225.44
923.83	225.39
924.13	225.36
924.44	225.37
924.74	225.37
925.04	225.40
925.34	225.41
925.64	225.34
925.94	225.32
926.24	225.37
926.55	225.36
926.85	225.33
927.15	225.32
927.45	225.30
927.75	225.30
928.05	225.32
928.35	225.29
928.65	225.28
928.95	225.29
929.26	225.21
929.56	225.19
929.86	225.21
930.16	225.19
930.46	225.19
930.76	225.19
931.06	225.15
931.36	225.14
931.66	225.15
931.96	225.20
932.26	225.19
932.56	225.17
932.86	225.17
933.16	225.21
933.46	225.18
933.76	225.17
934.06	225.22
934.36	225.25
934.66	225.24
934.96	225.21
935.26	225.24
935.56	225.25
935.86	225.22
936.16	225.20
936.46	225.22
936.76	225.21
937.06	225.18
937.36	225.18
937.66	225.18
937.96	225.15
938.26	225.10
938.56	225.12
938.86	225.12
939.16	225.15
939.46	225.16
939.76	225.21
940.06	225.17
940.35	225.13
940.65	225.06
940.95	225.06
941.25	225.07
941.55	225.03
941.85	225.02
942.15	225.09
942.45	225.18
942.75	225.16
943.04	225.18
943.34	225.21
943.64	225.21
943.94	225.20
944.24	225.23
944.54	225.26
944.84	225.26
945.13	225.24
945.43	225.22
945.73	225.21
946.03	225.18
946.33	225.20
946.62	225.21
946.92	225.23
947.22	225.25
947.52	225.27
947.82	225.30
948.11	225.29
948.41	225.25
948.71	225.19
949.01	225.22
949.31	225.19
949.60	225.18
949.90	225.22
950.20	225.20
950.50	225.18
950.79	225.16
951.09	225.17
951.39	225.16
951.69	225.16
951.98	225.18
952.28	225.17
952.58	225.17
952.87	225.16
953.17	225.17
953.47	225.16
953.76	225.15
954.06	225.13
954.36	225.11
954.66	225.13
954.95	225.14
955.25	225.13
955.55	225.15
955.84	225.10
956.14	225.08
956.44	225.12
956.73	225.10
957.03	225.13
957.32	225.12
957.62	225.14
957.92	225.14
958.21	225.11
958.51	225.22
958.81	225.23
959.10	225.25
959.40	225.25
959.69	225.25
959.99	225.23
960.29	225.23
960.58	225.22
960.88	225.23
961.17	225.21
961.47	225.21
961.76	225.18
962.06	225.21
962.36	225.20
962.65	225.17
962.95	225.20
963.24	225.19
963.54	225.18
963.83	225.16
964.13	225.15
964.42	225.14
964.72	225.06
965.01	225.05
965.31	225.02
965.60	224.98
965.90	225.03
966.19	225.05
966.49	225.04
966.78	225.05
967.08	225.05
967.37	225.05
967.67	225.04
967.96	225.04
968.26	225.03
968.55	225.04
968.85	225.06
969.14	225.05
969.43	225.02
969.73	225.03
970.02	225.02
970.32	225.01
970.61	225.00
970.91	224.96
971.20	224.97
971.49	224.97
971.79	225.02
972.08	224.98
972.38	224.99
972.67	225.01
972.96	225.01
973.26	224.97
973.55	225.02
973.85	225.01
974.14	225.00
974.43	225.02
974.73	224.99
975.02	224.98
975.31	224.98
975.61	225.00
975.90	225.01
976.19	225.04
976.49	225.06
976.78	225.05
977.07	225.07
977.37	225.07
977.66	225.11
977.95	225.07
978.24	225.06
978.54	225.07
978.83	225.06
979.12	225.07
979.42	225.11
979.71	225.08
980.00	225.08
980.29	225.12
980.59	225.12
980.88	225.19
981.17	225.18
981.46	225.16
981.76	225.16
982.05	225.19
982.34	225.19
982.63	225.19
982.93	225.21
983.22	225.25
983.51	225.25
983.80	225.24
984.09	225.26
984.39	225.28
984.68	225.26
984.97	225.28
985.26	225.30
985.55	225.31
985.85	225.30
986.14	225.29
986.43	225.30
986.72	225.31
987.01	225.25
987.30	225.25
987.59	225.29
987.89	225.29
988.18	225.21
988.47	225.23
988.76	225.21
989.05	225.21
989.34	225.20
989.63	225.22
989.92	225.21
990.22	225.21
990.51	225.20
990.80	225.19
991.09	225.20
991.38	225.19
991.67	225.17
991.96	225.16
992.25	225.17
992.54	225.15
992.83	225.13
993.12	225.11
993.41	225.13
993.70	225.14
993.99	225.15
994.28	225.19
994.58	225.20
994.87	225.20
995.16	225.20
995.45	225.20
995.74	225.16
996.03	225.19
996.32	225.19
996.61	225.18
996.90	225.18
997.19	225.15
997.48	225.14
997.77	225.13
998.06	225.08
998.34	225.09
998.63	225.09
998.92	225.06
999.21	225.11
999.50	225.07
999.79	225.02
1000.08	224.99
1000.37	225.03
1000.66	224.99
1000.95	225.00
1001.24	224.98
1001.53	224.98
1001.82	224.98
1002.11	224.92
1002.40	224.95
1002.68	224.96
1002.97	225.01
1003.26	225.02
1003.55	225.00
1003.84	224.99
1004.13	225.05
1004.42	225.06
1004.71	225.08
1004.99	225.10
1005.28	225.11
1005.57	225.13
1005.86	225.13
1006.15	225.13
1006.44	225.08
1006.72	225.11
1007.01	225.09
1007.30	225.09
1007.59	225.07
1007.88	225.07
1008.17	225.10
1008.45	225.07
1008.74	225.05
1009.03	225.00
1009.32	225.02
1009.60	225.03
1009.89	225.06
1010.18	225.04
1010.47	225.03
1010.76	225.00
1011.04	224.99
1011.33	225.00
1011.62	225.02
1011.91	225.05
1012.19	225.09
1012.48	225.07
1012.77	225.04
1013.05	225.11
1013.34	225.13
1013.63	225.10
1013.92	225.12
1014.20	225.10
1014.49	225.11
1014.78	225.13
1015.06	225.12
1015.35	225.09
1015.64	225.11
1015.92	225.12
1016.21	225.14
1016.50	225.16
1016.78	225.18
1017.07	225.19
1017.36	225.18
1017.64	225.19
1017.93	225.19
1018.22	225.20
1018.50	225.27
1018.79	225.28
1019.08	225.22
1019.36	225.24
1019.65	225.26
1019.93	225.31
1020.22	225.33
1020.51	225.35
1020.79	225.33
1021.08	225.49
1021.36	225.95
1021.65	224.81
1021.94	225.25
1022.22	225.34
1022.51	224.98
1022.79	226.24
1023.08	225.38
1023.36	225.58
1023.65	224.89
>>>>>End Processed Spectral Data<<<<<
