SpectraSuite Data File
++++++++++++++++++++++++++++++++++++
Date: Fri Feb 01 17:12:30 EST 2013
User: group
Dark Spectrum Present: No
Reference Spectrum Present: No
Number of Sampled Component Spectra: 1
Spectrometers: USB2E7196
Integration Time (usec): 35000 (USB2E7196)
Spectra Averaged: 100 (USB2E7196)
Boxcar Smoothing: 10 (USB2E7196)
Correct for Electrical Dark: No (USB2E7196)
Strobe/Lamp Enabled: No (USB2E7196)
Correct for Detector Non-linearity: No (USB2E7196)
Correct for Stray Light: No (USB2E7196)
Number of Pixels in Processed Spectrum: 2048
>>>>>Begin Processed Spectral Data<<<<<
339.09	0.00
339.48	213.50
339.86	214.43
340.24	215.72
340.63	217.24
341.01	220.39
341.39	220.20
341.78	221.52
342.16	222.49
342.54	222.92
342.93	211.53
343.31	222.25
343.69	222.75
344.07	223.21
344.46	223.66
344.84	224.05
345.22	224.29
345.60	224.55
345.99	224.75
346.37	224.90
346.75	225.01
347.13	225.10
347.52	225.16
347.90	225.22
348.28	225.25
348.66	225.34
349.05	225.35
349.43	225.39
349.81	225.44
350.19	225.49
350.57	225.54
350.96	225.59
351.34	225.67
351.72	225.78
352.10	225.94
352.48	226.02
352.87	226.07
353.25	226.12
353.63	226.17
354.01	226.21
354.39	226.29
354.77	226.39
355.15	226.50
355.54	226.55
355.92	226.60
356.30	226.65
356.68	226.80
357.06	226.84
357.44	226.90
357.82	227.01
358.20	227.08
358.58	227.14
358.97	227.23
359.35	227.30
359.73	227.38
360.11	227.35
360.49	227.40
360.87	227.45
361.25	227.54
361.63	227.61
362.01	227.67
362.39	227.69
362.77	227.72
363.15	227.76
363.53	227.82
363.91	227.85
364.29	227.89
364.67	227.79
365.05	227.83
365.43	227.86
365.81	227.82
366.19	227.87
366.57	227.91
366.95	227.90
367.33	227.90
367.71	227.92
368.09	227.97
368.47	227.96
368.85	227.96
369.23	227.94
369.61	227.88
369.99	227.87
370.37	227.86
370.75	227.88
371.13	227.80
371.51	227.76
371.89	227.73
372.27	227.71
372.65	227.69
373.03	227.66
373.41	227.61
373.78	227.58
374.16	227.50
374.54	227.44
374.92	227.39
375.30	227.31
375.68	227.20
376.06	227.15
376.44	227.09
376.82	227.01
377.19	226.94
377.57	226.88
377.95	226.81
378.33	226.76
378.71	226.64
379.09	226.62
379.47	226.57
379.84	226.48
380.22	226.38
380.60	226.30
380.98	226.24
381.36	226.17
381.73	226.08
382.11	226.02
382.49	225.97
382.87	225.92
383.25	225.82
383.62	225.90
384.00	225.80
384.38	225.75
384.76	225.73
385.13	225.75
385.51	225.69
385.89	225.61
386.27	225.54
386.64	225.51
387.02	225.45
387.40	225.41
387.78	225.39
388.15	225.35
388.53	225.30
388.91	225.26
389.29	225.21
389.66	225.22
390.04	225.18
390.42	225.11
390.79	225.06
391.17	225.07
391.55	224.92
391.92	224.90
392.30	224.91
392.68	224.88
393.05	224.84
393.43	224.87
393.81	224.86
394.18	224.87
394.56	224.90
394.94	224.93
395.31	224.93
395.69	224.97
396.06	225.02
396.44	225.07
396.82	225.09
397.19	225.16
397.57	225.12
397.95	225.20
398.32	225.25
398.70	225.28
399.07	225.35
399.45	225.41
399.82	225.46
400.20	225.48
400.58	225.54
400.95	225.55
401.33	225.64
401.70	225.83
402.08	225.91
402.45	226.00
402.83	226.09
403.20	226.18
403.58	226.25
403.95	226.34
404.33	226.47
404.71	226.62
405.08	226.80
405.46	226.97
405.83	227.09
406.21	227.22
406.58	227.40
406.96	227.56
407.33	227.72
407.70	227.94
408.08	228.20
408.45	228.41
408.83	228.67
409.20	228.86
409.58	229.03
409.95	229.32
410.33	229.56
410.70	229.82
411.08	230.12
411.45	230.45
411.82	230.77
412.20	231.14
412.57	231.52
412.95	231.77
413.32	232.16
413.69	232.55
414.07	233.00
414.44	233.47
414.82	233.96
415.19	234.55
415.56	235.09
415.94	235.65
416.31	236.30
416.68	236.91
417.06	237.65
417.43	238.32
417.81	239.06
418.18	239.84
418.55	240.72
418.93	241.61
419.30	242.53
419.67	243.48
420.04	244.47
420.42	245.48
420.79	246.72
421.16	247.90
421.54	249.14
421.91	250.40
422.28	251.69
422.66	253.05
423.03	254.39
423.40	255.75
423.77	257.16
424.15	258.59
424.52	260.10
424.89	261.75
425.26	263.32
425.64	264.78
426.01	266.43
426.38	268.07
426.75	269.75
427.13	271.47
427.50	273.32
427.87	275.21
428.24	277.07
428.61	278.82
428.99	280.82
429.36	282.93
429.73	284.97
430.10	287.02
430.47	289.11
430.85	291.26
431.22	293.51
431.59	295.94
431.96	298.21
432.33	300.74
432.70	303.14
433.08	306.01
433.45	308.73
433.82	311.34
434.19	314.27
434.56	317.16
434.93	319.87
435.30	322.51
435.68	325.42
436.05	328.30
436.42	331.13
436.79	333.70
437.16	336.44
437.53	339.33
437.90	342.17
438.27	344.94
438.64	347.79
439.01	350.38
439.38	352.67
439.75	354.86
440.13	357.37
440.50	359.68
440.87	361.55
441.24	363.44
441.61	365.62
441.98	367.14
442.35	368.96
442.72	370.85
443.09	372.72
443.46	373.71
443.83	374.34
444.20	374.86
444.57	375.69
444.94	375.99
445.31	376.34
445.68	376.70
446.05	376.79
446.42	376.41
446.79	376.06
447.16	375.60
447.53	375.32
447.90	374.17
448.27	373.04
448.64	371.44
449.01	370.35
449.37	368.36
449.74	366.44
450.11	364.14
450.48	361.62
450.85	359.06
451.22	356.92
451.59	354.85
451.96	352.89
452.33	350.25
452.70	347.84
453.07	345.01
453.43	342.09
453.80	339.30
454.17	336.64
454.54	334.03
454.91	331.25
455.28	328.54
455.65	326.03
456.02	323.57
456.38	321.35
456.75	318.63
457.12	316.36
457.49	314.11
457.86	311.93
458.23	310.08
458.59	308.00
458.96	305.88
459.33	304.00
459.70	302.11
460.07	300.58
460.43	298.85
460.80	297.13
461.17	295.68
461.54	294.14
461.91	292.65
462.27	291.19
462.64	289.95
463.01	288.55
463.38	287.25
463.74	285.88
464.11	284.75
464.48	283.73
464.85	282.58
465.21	281.68
465.58	280.71
465.95	279.58
466.32	278.65
466.68	277.75
467.05	276.85
467.42	276.00
467.78	275.08
468.15	274.17
468.52	273.54
468.88	272.64
469.25	271.86
469.62	271.21
469.98	270.53
470.35	269.90
470.72	269.30
471.08	268.64
471.45	268.08
471.82	267.50
472.18	266.91
472.55	266.51
472.92	266.01
473.28	265.60
473.65	265.14
474.02	264.72
474.38	264.35
474.75	264.03
475.11	263.64
475.48	263.38
475.85	263.17
476.21	262.94
476.58	262.79
476.94	262.66
477.31	262.52
477.67	262.39
478.04	262.26
478.41	262.22
478.77	262.25
479.14	262.21
479.50	262.24
479.87	262.30
480.23	262.35
480.60	262.43
480.96	262.49
481.33	262.70
481.69	262.89
482.06	263.07
482.42	263.25
482.79	263.52
483.15	263.84
483.52	264.21
483.88	264.53
484.25	264.91
484.61	265.33
484.98	265.80
485.34	266.38
485.71	266.96
486.07	267.60
486.44	268.14
486.80	268.83
487.17	269.58
487.53	270.40
487.90	271.28
488.26	272.22
488.62	273.21
488.99	274.18
489.35	275.26
489.72	276.38
490.08	277.59
490.44	278.81
490.81	280.13
491.17	281.50
491.54	283.04
491.90	284.59
492.26	286.24
492.63	287.98
492.99	289.75
493.36	291.63
493.72	293.62
494.08	295.74
494.45	298.00
494.81	300.33
495.17	302.73
495.54	305.28
495.90	307.94
496.26	310.73
496.63	313.68
496.99	316.75
497.35	319.96
497.72	323.35
498.08	326.86
498.44	330.54
498.80	334.43
499.17	338.43
499.53	342.58
499.89	346.94
500.26	351.40
500.62	356.05
500.98	361.04
501.34	366.10
501.71	371.42
502.07	376.82
502.43	382.38
502.79	388.18
503.16	394.24
503.52	400.49
503.88	406.89
504.24	413.53
504.60	420.37
504.97	427.49
505.33	434.78
505.69	442.46
506.05	450.21
506.41	458.04
506.78	466.15
507.14	474.55
507.50	483.14
507.86	492.10
508.22	501.21
508.59	510.30
508.95	519.76
509.31	529.48
509.67	539.48
510.03	549.69
510.39	560.13
510.75	570.74
511.12	581.52
511.48	592.62
511.84	603.93
512.20	615.26
512.56	627.08
512.92	639.12
513.28	651.34
513.64	663.60
514.00	676.12
514.37	688.88
514.73	701.77
515.09	714.62
515.45	727.72
515.81	741.15
516.17	754.86
516.53	768.85
516.89	782.74
517.25	796.69
517.61	810.81
517.97	824.99
518.33	839.13
518.69	853.62
519.05	868.34
519.41	883.18
519.77	898.47
520.13	913.67
520.49	928.78
520.85	943.82
521.21	959.23
521.57	975.32
521.93	990.73
522.29	1006.68
522.65	1022.72
523.01	1038.51
523.37	1054.22
523.73	1070.17
524.09	1085.90
524.45	1101.89
524.81	1118.26
525.17	1134.71
525.53	1151.32
525.89	1167.97
526.25	1184.48
526.61	1200.60
526.97	1217.08
527.33	1233.22
527.68	1249.39
528.04	1265.55
528.40	1281.72
528.76	1298.43
529.12	1314.56
529.48	1331.17
529.84	1346.95
530.20	1363.22
530.56	1379.91
530.91	1396.92
531.27	1413.35
531.63	1429.47
531.99	1445.78
532.35	1461.38
532.71	1477.04
533.07	1492.93
533.42	1508.58
533.78	1524.39
534.14	1540.40
534.50	1555.38
534.86	1571.07
535.21	1586.03
535.57	1601.53
535.93	1616.82
536.29	1631.32
536.65	1646.10
537.00	1660.48
537.36	1675.48
537.72	1689.75
538.08	1704.01
538.44	1717.58
538.79	1731.08
539.15	1744.52
539.51	1757.82
539.87	1772.00
540.22	1785.53
540.58	1799.04
540.94	1811.89
541.29	1824.39
541.65	1836.86
542.01	1849.86
542.37	1861.89
542.72	1873.96
543.08	1885.74
543.44	1897.94
543.79	1909.19
544.15	1919.97
544.51	1931.57
544.87	1942.29
545.22	1952.97
545.58	1963.06
545.94	1972.90
546.29	1982.94
546.65	1992.77
547.01	2002.25
547.36	2010.96
547.72	2019.42
548.07	2027.54
548.43	2035.85
548.79	2043.93
549.14	2051.57
549.50	2059.02
549.86	2066.69
550.21	2074.25
550.57	2081.37
550.92	2088.10
551.28	2095.24
551.64	2102.44
551.99	2108.97
552.35	2115.42
552.70	2121.68
553.06	2127.70
553.41	2134.01
553.77	2139.97
554.13	2146.15
554.48	2152.38
554.84	2157.99
555.19	2163.31
555.55	2168.48
555.90	2173.11
556.26	2178.34
556.61	2183.14
556.97	2187.69
557.32	2192.04
557.68	2196.18
558.03	2200.71
558.39	2204.49
558.74	2209.20
559.10	2213.18
559.45	2216.96
559.81	2221.21
560.16	2225.24
560.52	2228.83
560.87	2232.38
561.23	2235.33
561.58	2238.41
561.94	2241.14
562.29	2243.55
562.64	2246.66
563.00	2249.34
563.35	2253.10
563.71	2256.34
564.06	2259.64
564.42	2262.67
564.77	2265.52
565.12	2268.29
565.48	2270.58
565.83	2272.81
566.19	2274.48
566.54	2275.71
566.89	2277.29
567.25	2278.45
567.60	2279.95
567.96	2281.89
568.31	2283.05
568.66	2284.42
569.02	2285.34
569.37	2286.07
569.72	2287.34
570.08	2287.88
570.43	2288.21
570.78	2288.02
571.14	2286.83
571.49	2285.79
571.84	2285.65
572.20	2284.66
572.55	2283.80
572.90	2282.27
573.26	2281.19
573.61	2279.58
573.96	2278.26
574.31	2275.40
574.67	2272.59
575.02	2269.21
575.37	2266.04
575.72	2262.55
576.08	2259.31
576.43	2256.15
576.78	2252.72
577.13	2249.54
577.49	2246.29
577.84	2243.11
578.19	2239.47
578.54	2236.19
578.90	2232.35
579.25	2227.06
579.60	2222.53
579.95	2217.90
580.30	2213.10
580.66	2208.16
581.01	2203.31
581.36	2198.38
581.71	2194.64
582.06	2190.49
582.42	2186.46
582.77	2181.58
583.12	2177.34
583.47	2173.02
583.82	2168.32
584.17	2163.30
584.53	2158.07
584.88	2152.76
585.23	2147.24
585.58	2141.92
585.93	2136.47
586.28	2131.76
586.63	2127.03
586.98	2122.09
587.34	2117.40
587.69	2112.63
588.04	2107.60
588.39	2102.25
588.74	2096.13
589.09	2089.92
589.44	2083.35
589.79	2077.24
590.14	2071.61
590.49	2065.19
590.84	2058.93
591.19	2053.06
591.54	2046.66
591.89	2039.72
592.25	2033.33
592.60	2026.32
592.95	2019.03
593.30	2011.92
593.65	2004.48
594.00	1997.42
594.35	1990.38
594.70	1982.41
595.05	1975.68
595.40	1968.50
595.75	1961.19
596.10	1955.23
596.45	1948.95
596.80	1942.95
597.15	1936.59
597.50	1929.97
597.85	1923.47
598.19	1916.99
598.54	1910.23
598.89	1903.72
599.24	1897.91
599.59	1891.41
599.94	1885.31
600.29	1879.13
600.64	1872.42
600.99	1865.22
601.34	1858.69
601.69	1851.58
602.04	1845.01
602.39	1837.73
602.74	1831.03
603.08	1824.49
603.43	1817.69
603.78	1810.25
604.13	1802.97
604.48	1795.93
604.83	1788.89
605.18	1782.29
605.53	1774.33
605.87	1766.14
606.22	1758.86
606.57	1750.81
606.92	1743.11
607.27	1736.05
607.62	1729.08
607.96	1722.13
608.31	1715.71
608.66	1708.09
609.01	1700.84
609.36	1693.31
609.70	1685.16
610.05	1677.02
610.40	1669.31
610.75	1661.01
611.10	1653.53
611.44	1645.18
611.79	1636.95
612.14	1628.34
612.49	1619.06
612.83	1610.59
613.18	1602.49
613.53	1594.41
613.88	1585.93
614.22	1577.81
614.57	1568.96
614.92	1560.96
615.27	1553.41
615.61	1544.99
615.96	1536.91
616.31	1529.10
616.65	1521.59
617.00	1514.13
617.35	1506.46
617.70	1498.13
618.04	1489.67
618.39	1481.21
618.74	1473.57
619.08	1465.26
619.43	1457.51
619.78	1450.45
620.12	1443.39
620.47	1435.79
620.82	1427.52
621.16	1420.01
621.51	1412.36
621.85	1404.71
622.20	1396.17
622.55	1387.66
622.89	1379.62
623.24	1371.83
623.59	1364.25
623.93	1356.64
624.28	1349.20
624.62	1341.69
624.97	1334.44
625.32	1327.42
625.66	1320.33
626.01	1313.10
626.35	1305.77
626.70	1297.99
627.04	1290.28
627.39	1282.40
627.73	1274.94
628.08	1268.06
628.43	1260.88
628.77	1253.59
629.12	1246.00
629.46	1238.84
629.81	1231.28
630.15	1224.07
630.50	1216.72
630.84	1208.64
631.19	1200.55
631.53	1193.04
631.88	1185.44
632.22	1177.76
632.57	1170.60
632.91	1163.13
633.26	1155.76
633.60	1148.23
633.95	1141.00
634.29	1133.92
634.64	1127.27
634.98	1119.99
635.32	1112.80
635.67	1105.98
636.01	1099.27
636.36	1092.68
636.70	1085.98
637.05	1079.50
637.39	1073.08
637.73	1066.61
638.08	1060.63
638.42	1054.75
638.77	1048.35
639.11	1041.79
639.45	1035.45
639.80	1028.68
640.14	1022.26
640.49	1015.72
640.83	1009.45
641.17	1003.37
641.52	997.08
641.86	990.48
642.20	984.58
642.55	978.20
642.89	971.86
643.23	965.25
643.58	959.35
643.92	953.25
644.26	947.29
644.61	941.09
644.95	935.10
645.29	928.64
645.64	921.99
645.98	915.61
646.32	909.58
646.66	903.54
647.01	897.78
647.35	892.07
647.69	886.08
648.04	880.46
648.38	874.66
648.72	868.62
649.06	862.63
649.41	856.71
649.75	850.85
650.09	844.85
650.43	839.04
650.78	832.87
651.12	826.88
651.46	820.99
651.80	815.37
652.14	809.86
652.49	804.45
652.83	799.22
653.17	793.60
653.51	788.00
653.85	782.50
654.20	776.86
654.54	770.78
654.88	765.00
655.22	759.06
655.56	753.22
655.90	747.74
656.25	742.46
656.59	737.09
656.93	731.95
657.27	726.75
657.61	721.23
657.95	716.11
658.29	711.01
658.64	705.65
658.98	700.23
659.32	694.74
659.66	689.54
660.00	684.26
660.34	679.26
660.68	674.35
661.02	669.29
661.36	664.59
661.70	660.05
662.05	655.69
662.39	651.45
662.73	647.00
663.07	642.56
663.41	638.14
663.75	633.67
664.09	629.03
664.43	624.67
664.77	620.62
665.11	616.38
665.45	612.25
665.79	608.28
666.13	604.16
666.47	600.05
666.81	595.83
667.15	591.62
667.49	587.66
667.83	583.67
668.17	579.73
668.51	575.67
668.85	571.67
669.19	567.85
669.53	563.95
669.87	560.07
670.21	556.38
670.55	552.67
670.89	549.12
671.23	545.73
671.57	542.14
671.91	538.57
672.25	535.07
672.58	531.50
672.92	528.03
673.26	524.82
673.60	521.66
673.94	518.54
674.28	515.62
674.62	512.67
674.96	509.64
675.30	506.72
675.64	503.74
675.97	500.93
676.31	498.02
676.65	495.07
676.99	492.39
677.33	489.54
677.67	486.71
678.01	483.78
678.34	480.82
678.68	478.02
679.02	475.25
679.36	472.43
679.70	469.71
680.04	466.92
680.37	464.08
680.71	461.27
681.05	458.65
681.39	455.95
681.73	453.26
682.06	450.76
682.40	448.26
682.74	445.69
683.08	443.12
683.42	440.53
683.75	438.04
684.09	435.44
684.43	432.92
684.77	430.49
685.10	428.09
685.44	425.71
685.78	423.33
686.12	421.05
686.45	418.75
686.79	416.48
687.13	414.30
687.46	412.08
687.80	409.91
688.14	407.66
688.48	405.60
688.81	403.41
689.15	401.26
689.49	399.07
689.82	396.99
690.16	394.85
690.50	392.89
690.83	390.96
691.17	388.97
691.51	387.08
691.84	385.20
692.18	383.26
692.52	381.33
692.85	379.41
693.19	377.52
693.52	375.64
693.86	373.76
694.20	372.01
694.53	370.28
694.87	368.41
695.21	366.64
695.54	364.78
695.88	363.00
696.21	361.21
696.55	359.53
696.88	357.80
697.22	356.18
697.56	354.49
697.89	352.81
698.23	351.23
698.56	349.59
698.90	348.01
699.23	346.39
699.57	344.80
699.90	343.25
700.24	341.71
700.58	340.24
700.91	338.77
701.25	337.28
701.58	335.86
701.92	334.47
702.25	333.07
702.59	331.71
702.92	330.38
703.26	329.07
703.59	327.77
703.93	326.59
704.26	325.33
704.60	324.08
704.93	322.80
705.26	321.49
705.60	320.25
705.93	319.06
706.27	317.99
706.60	316.94
706.94	315.84
707.27	314.67
707.61	313.53
707.94	312.46
708.27	311.36
708.61	310.24
708.94	309.22
709.28	308.19
709.61	307.20
709.94	306.22
710.28	305.19
710.61	304.18
710.95	303.02
711.28	302.06
711.61	301.08
711.95	300.17
712.28	299.21
712.61	298.28
712.95	297.30
713.28	296.38
713.61	295.48
713.95	294.60
714.28	293.72
714.61	292.85
714.95	292.03
715.28	291.17
715.61	290.31
715.95	289.44
716.28	288.60
716.61	287.74
716.95	286.90
717.28	286.16
717.61	285.39
717.94	284.69
718.28	283.94
718.61	283.23
718.94	282.47
719.27	281.82
719.61	281.17
719.94	280.51
720.27	279.82
720.60	279.12
720.94	278.49
721.27	277.93
721.60	277.35
721.93	276.74
722.27	276.19
722.60	275.64
722.93	275.03
723.26	274.47
723.59	273.90
723.93	273.32
724.26	272.73
724.59	272.15
724.92	271.65
725.25	271.11
725.59	270.57
725.92	270.10
726.25	269.58
726.58	269.05
726.91	268.57
727.24	268.08
727.57	267.61
727.91	267.06
728.24	266.56
728.57	266.06
728.90	265.62
729.23	265.12
729.56	264.74
729.89	264.31
730.22	263.82
730.55	263.38
730.89	262.97
731.22	262.51
731.55	262.09
731.88	261.62
732.21	261.20
732.54	260.76
732.87	260.32
733.20	259.89
733.53	259.51
733.86	259.12
734.19	258.69
734.52	258.30
734.85	257.97
735.18	257.54
735.51	257.18
735.84	256.80
736.17	256.42
736.50	255.97
736.83	255.74
737.16	255.42
737.49	255.07
737.82	254.69
738.15	254.35
738.48	253.99
738.81	253.69
739.14	253.34
739.47	253.03
739.80	252.75
740.13	252.48
740.46	252.15
740.79	251.80
741.12	251.49
741.45	251.17
741.78	250.83
742.11	250.56
742.44	250.19
742.77	249.85
743.10	249.59
743.43	249.29
743.75	248.86
744.08	248.72
744.41	248.41
744.74	248.16
745.07	247.89
745.40	247.63
745.73	247.38
746.06	247.11
746.39	246.84
746.71	246.52
747.04	246.22
747.37	245.92
747.70	245.70
748.03	245.47
748.36	245.25
748.68	245.01
749.01	244.75
749.34	244.57
749.67	244.37
750.00	244.11
750.33	243.91
750.65	243.70
750.98	243.32
751.31	243.10
751.64	242.89
751.97	242.72
752.29	242.50
752.62	242.18
752.95	241.98
753.28	241.74
753.60	241.52
753.93	241.37
754.26	241.19
754.59	240.93
754.91	240.70
755.24	240.48
755.57	240.28
755.90	240.10
756.22	239.89
756.55	239.64
756.88	239.42
757.20	239.21
757.53	239.02
757.86	238.86
758.19	238.73
758.51	238.50
758.84	238.31
759.17	238.12
759.49	238.00
759.82	237.87
760.15	237.75
760.47	237.59
760.80	237.36
761.13	237.23
761.45	237.11
761.78	236.97
762.11	236.84
762.43	236.72
762.76	236.55
763.08	236.40
763.41	236.28
763.74	236.16
764.06	236.00
764.39	235.87
764.71	235.72
765.04	235.58
765.37	235.46
765.69	235.34
766.02	235.26
766.34	235.15
766.67	234.99
767.00	234.88
767.32	234.84
767.65	234.80
767.97	234.69
768.30	234.57
768.62	234.45
768.95	234.34
769.27	234.19
769.60	234.12
769.92	234.00
770.25	233.90
770.57	233.84
770.90	233.74
771.22	233.64
771.55	233.56
771.87	233.48
772.20	233.40
772.52	233.38
772.85	233.39
773.17	233.34
773.50	233.24
773.82	233.15
774.15	232.99
774.47	232.84
774.80	232.72
775.12	232.67
775.45	232.60
775.77	232.50
776.09	232.45
776.42	232.38
776.74	232.34
777.07	232.26
777.39	232.14
777.72	232.11
778.04	232.02
778.36	231.93
778.69	231.87
779.01	231.80
779.33	231.65
779.66	231.45
779.98	231.34
780.31	231.27
780.63	231.26
780.95	231.24
781.28	231.16
781.60	231.11
781.92	231.00
782.25	230.96
782.57	230.92
782.89	230.84
783.22	230.76
783.54	230.67
783.86	230.63
784.19	230.58
784.51	230.52
784.83	230.46
785.16	230.41
785.48	230.36
785.80	230.34
786.12	230.28
786.45	230.24
786.77	230.23
787.09	230.19
787.42	230.09
787.74	230.05
788.06	230.05
788.38	230.01
788.71	229.97
789.03	229.90
789.35	229.86
789.67	229.80
789.99	229.77
790.32	229.73
790.64	229.69
790.96	229.73
791.28	229.70
791.61	229.69
791.93	229.65
792.25	229.61
792.57	229.61
792.89	229.56
793.21	229.53
793.54	229.47
793.86	229.38
794.18	229.38
794.50	229.31
794.82	229.26
795.14	229.25
795.47	229.22
795.79	229.18
796.11	229.12
796.43	229.10
796.75	229.08
797.07	229.05
797.39	229.00
797.71	228.87
798.04	228.81
798.36	228.80
798.68	228.74
799.00	228.69
799.32	228.61
799.64	228.62
799.96	228.58
800.28	228.56
800.60	228.57
800.92	228.54
801.24	228.51
801.56	228.49
801.89	228.45
802.21	228.43
802.53	228.42
802.85	228.43
803.17	228.44
803.49	228.37
803.81	228.35
804.13	228.35
804.45	228.36
804.77	228.34
805.09	228.30
805.41	228.29
805.73	228.24
806.05	228.19
806.37	228.13
806.69	228.09
807.01	228.08
807.33	228.04
807.65	227.98
807.97	227.99
808.28	227.95
808.60	227.88
808.92	227.86
809.24	227.89
809.56	227.83
809.88	227.75
810.20	227.73
810.52	227.73
810.84	227.65
811.16	227.63
811.48	227.57
811.80	227.57
812.12	227.55
812.43	227.56
812.75	227.53
813.07	227.50
813.39	227.48
813.71	227.44
814.03	227.41
814.35	227.38
814.67	227.35
814.98	227.31
815.30	227.29
815.62	227.22
815.94	227.11
816.26	227.14
816.58	227.13
816.89	227.12
817.21	227.08
817.53	227.07
817.85	227.04
818.17	227.04
818.48	226.99
818.80	226.99
819.12	226.94
819.44	226.91
819.76	226.88
820.07	226.87
820.39	226.84
820.71	226.82
821.03	226.80
821.34	226.76
821.66	226.76
821.98	226.79
822.30	226.77
822.61	226.83
822.93	226.77
823.25	226.76
823.57	226.73
823.88	226.73
824.20	226.71
824.52	226.70
824.83	226.69
825.15	226.64
825.47	226.63
825.79	226.64
826.10	226.63
826.42	226.63
826.74	226.63
827.05	226.62
827.37	226.60
827.69	226.60
828.00	226.56
828.32	226.55
828.64	226.51
828.95	226.58
829.27	226.52
829.58	226.53
829.90	226.52
830.22	226.53
830.53	226.50
830.85	226.48
831.17	226.43
831.48	226.40
831.80	226.41
832.11	226.39
832.43	226.36
832.75	226.36
833.06	226.36
833.38	226.31
833.69	226.28
834.01	226.31
834.32	226.29
834.64	226.31
834.96	226.28
835.27	226.29
835.59	226.21
835.90	226.21
836.22	226.17
836.53	226.13
836.85	226.11
837.16	226.21
837.48	226.20
837.79	226.26
838.11	226.26
838.42	226.25
838.74	226.24
839.05	226.22
839.37	226.19
839.68	226.17
840.00	226.18
840.31	226.22
840.63	226.20
840.94	226.19
841.26	226.17
841.57	226.18
841.88	226.20
842.20	226.20
842.51	226.20
842.83	226.22
843.14	226.33
843.46	226.34
843.77	226.26
844.08	226.27
844.40	226.20
844.71	226.19
845.03	226.20
845.34	226.18
845.65	226.18
845.97	226.18
846.28	226.15
846.60	226.14
846.91	226.12
847.22	226.08
847.54	226.12
847.85	226.13
848.16	226.11
848.48	226.06
848.79	226.13
849.10	226.11
849.42	226.09
849.73	226.00
850.04	225.96
850.36	225.95
850.67	225.94
850.98	225.99
851.30	225.96
851.61	225.93
851.92	225.94
852.23	225.98
852.55	225.95
852.86	225.98
853.17	226.01
853.49	226.01
853.80	226.04
854.11	226.04
854.42	226.05
854.74	226.04
855.05	226.05
855.36	225.95
855.67	225.96
855.99	225.95
856.30	226.04
856.61	226.05
856.92	226.02
857.23	226.03
857.55	226.03
857.86	226.05
858.17	226.06
858.48	226.04
858.79	225.98
859.11	226.02
859.42	226.03
859.73	225.99
860.04	225.98
860.35	225.93
860.66	225.88
860.98	225.89
861.29	225.90
861.60	225.90
861.91	225.92
862.22	225.89
862.53	225.88
862.84	225.76
863.16	225.80
863.47	225.78
863.78	225.78
864.09	225.75
864.40	225.70
864.71	225.72
865.02	225.75
865.33	225.74
865.64	225.68
865.95	225.66
866.27	225.70
866.58	225.68
866.89	225.70
867.20	225.70
867.51	225.65
867.82	225.64
868.13	225.67
868.44	225.65
868.75	225.68
869.06	225.68
869.37	225.68
869.68	225.64
869.99	225.66
870.30	225.67
870.61	225.66
870.92	225.67
871.23	225.65
871.54	225.64
871.85	225.67
872.16	225.71
872.47	225.66
872.78	225.63
873.09	225.61
873.40	225.62
873.71	225.65
874.02	225.66
874.33	225.60
874.64	225.58
874.95	225.61
875.26	225.59
875.56	225.59
875.87	225.60
876.18	225.58
876.49	225.66
876.80	225.65
877.11	225.66
877.42	225.67
877.73	225.67
878.04	225.65
878.35	225.65
878.66	225.66
878.96	225.70
879.27	225.72
879.58	225.74
879.89	225.70
880.20	225.71
880.51	225.69
880.82	225.72
881.12	225.71
881.43	225.69
881.74	225.70
882.05	225.72
882.36	225.70
882.67	225.73
882.97	225.62
883.28	225.58
883.59	225.57
883.90	225.55
884.21	225.56
884.51	225.54
884.82	225.53
885.13	225.50
885.44	225.50
885.74	225.49
886.05	225.50
886.36	225.51
886.67	225.46
886.98	225.52
887.28	225.57
887.59	225.56
887.90	225.57
888.20	225.54
888.51	225.54
888.82	225.54
889.13	225.53
889.43	225.59
889.74	225.60
890.05	225.61
890.35	225.62
890.66	225.62
890.97	225.63
891.28	225.62
891.58	225.65
891.89	225.65
892.20	225.61
892.50	225.57
892.81	225.56
893.12	225.57
893.42	225.48
893.73	225.45
894.04	225.46
894.34	225.46
894.65	225.44
894.95	225.42
895.26	225.41
895.57	225.48
895.87	225.43
896.18	225.47
896.48	225.44
896.79	225.45
897.10	225.45
897.40	225.44
897.71	225.45
898.01	225.40
898.32	225.40
898.63	225.43
898.93	225.43
899.24	225.44
899.54	225.41
899.85	225.43
900.15	225.43
900.46	225.41
900.76	225.43
901.07	225.43
901.38	225.42
901.68	225.43
901.99	225.34
902.29	225.33
902.60	225.29
902.90	225.33
903.21	225.32
903.51	225.31
903.82	225.35
904.12	225.34
904.43	225.38
904.73	225.37
905.03	225.35
905.34	225.45
905.64	225.45
905.95	225.49
906.25	225.48
906.56	225.49
906.86	225.46
907.17	225.46
907.47	225.46
907.77	225.47
908.08	225.46
908.38	225.50
908.69	225.50
908.99	225.51
909.30	225.49
909.60	225.47
909.90	225.45
910.21	225.41
910.51	225.44
910.81	225.43
911.12	225.44
911.42	225.43
911.73	225.34
912.03	225.36
912.33	225.37
912.64	225.39
912.94	225.36
913.24	225.36
913.55	225.32
913.85	225.28
914.15	225.29
914.46	225.29
914.76	225.23
915.06	225.24
915.37	225.23
915.67	225.23
915.97	225.22
916.27	225.20
916.58	225.21
916.88	225.18
917.18	225.16
917.49	225.24
917.79	225.24
918.09	225.28
918.39	225.26
918.70	225.24
919.00	225.25
919.30	225.32
919.60	225.34
919.91	225.34
920.21	225.38
920.51	225.36
920.81	225.36
921.12	225.43
921.42	225.38
921.72	225.40
922.02	225.43
922.32	225.44
922.63	225.45
922.93	225.51
923.23	225.50
923.53	225.54
923.83	225.45
924.13	225.43
924.44	225.41
924.74	225.43
925.04	225.46
925.34	225.44
925.64	225.39
925.94	225.39
926.24	225.45
926.55	225.43
926.85	225.44
927.15	225.43
927.45	225.41
927.75	225.46
928.05	225.43
928.35	225.39
928.65	225.40
928.95	225.42
929.26	225.34
929.56	225.38
929.86	225.39
930.16	225.39
930.46	225.38
930.76	225.37
931.06	225.34
931.36	225.32
931.66	225.33
931.96	225.34
932.26	225.33
932.56	225.26
932.86	225.26
933.16	225.24
933.46	225.23
933.76	225.22
934.06	225.22
934.36	225.27
934.66	225.26
934.96	225.25
935.26	225.24
935.56	225.26
935.86	225.21
936.16	225.17
936.46	225.18
936.76	225.18
937.06	225.17
937.36	225.17
937.66	225.16
937.96	225.16
938.26	225.11
938.56	225.10
938.86	225.11
939.16	225.14
939.46	225.16
939.76	225.15
940.06	225.14
940.35	225.12
940.65	225.08
940.95	225.10
941.25	225.08
941.55	225.07
941.85	225.06
942.15	225.12
942.45	225.13
942.75	225.12
943.04	225.15
943.34	225.17
943.64	225.15
943.94	225.13
944.24	225.11
944.54	225.13
944.84	225.15
945.13	225.14
945.43	225.12
945.73	225.13
946.03	225.12
946.33	225.14
946.62	225.14
946.92	225.14
947.22	225.16
947.52	225.17
947.82	225.22
948.11	225.22
948.41	225.18
948.71	225.18
949.01	225.19
949.31	225.17
949.60	225.17
949.90	225.20
950.20	225.22
950.50	225.21
950.79	225.24
951.09	225.26
951.39	225.25
951.69	225.26
951.98	225.31
952.28	225.35
952.58	225.33
952.87	225.34
953.17	225.33
953.47	225.29
953.76	225.29
954.06	225.23
954.36	225.22
954.66	225.20
954.95	225.21
955.25	225.22
955.55	225.22
955.84	225.21
956.14	225.20
956.44	225.22
956.73	225.24
957.03	225.22
957.32	225.19
957.62	225.21
957.92	225.23
958.21	225.17
958.51	225.25
958.81	225.27
959.10	225.30
959.40	225.34
959.69	225.36
959.99	225.41
960.29	225.43
960.58	225.44
960.88	225.51
961.17	225.48
961.47	225.49
961.76	225.50
962.06	225.55
962.36	225.53
962.65	225.54
962.95	225.53
963.24	225.51
963.54	225.51
963.83	225.53
964.13	225.51
964.42	225.51
964.72	225.44
965.01	225.45
965.31	225.42
965.60	225.42
965.90	225.49
966.19	225.47
966.49	225.45
966.78	225.45
967.08	225.42
967.37	225.44
967.67	225.42
967.96	225.44
968.26	225.38
968.55	225.40
968.85	225.38
969.14	225.37
969.43	225.40
969.73	225.39
970.02	225.38
970.32	225.35
970.61	225.36
970.91	225.31
971.20	225.28
971.49	225.28
971.79	225.27
972.08	225.16
972.38	225.14
972.67	225.16
972.96	225.17
973.26	225.14
973.55	225.16
973.85	225.15
974.14	225.12
974.43	225.11
974.73	225.11
975.02	225.13
975.31	225.18
975.61	225.14
975.90	225.14
976.19	225.09
976.49	225.09
976.78	225.10
977.07	225.09
977.37	225.12
977.66	225.11
977.95	225.11
978.24	225.13
978.54	225.15
978.83	225.14
979.12	225.10
979.42	225.12
979.71	225.10
980.00	225.09
980.29	225.13
980.59	225.14
980.88	225.16
981.17	225.16
981.46	225.13
981.76	225.16
982.05	225.22
982.34	225.25
982.63	225.27
982.93	225.29
983.22	225.32
983.51	225.33
983.80	225.35
984.09	225.33
984.39	225.33
984.68	225.33
984.97	225.34
985.26	225.36
985.55	225.37
985.85	225.33
986.14	225.40
986.43	225.37
986.72	225.40
987.01	225.33
987.30	225.31
987.59	225.28
987.89	225.28
988.18	225.24
988.47	225.22
988.76	225.21
989.05	225.19
989.34	225.18
989.63	225.19
989.92	225.14
990.22	225.12
990.51	225.09
990.80	225.10
991.09	225.09
991.38	225.09
991.67	225.08
991.96	225.08
992.25	225.05
992.54	225.04
992.83	224.98
993.12	225.01
993.41	225.02
993.70	225.06
993.99	225.06
994.28	225.07
994.58	225.09
994.87	225.11
995.16	225.11
995.45	225.10
995.74	225.07
996.03	225.12
996.32	225.18
996.61	225.24
996.90	225.22
997.19	225.23
997.48	225.22
997.77	225.18
998.06	225.19
998.34	225.17
998.63	225.14
998.92	225.17
999.21	225.16
999.50	225.15
999.79	225.12
1000.08	225.12
1000.37	225.12
1000.66	225.12
1000.95	225.13
1001.24	225.17
1001.53	225.16
1001.82	225.14
1002.11	225.12
1002.40	225.11
1002.68	225.10
1002.97	225.17
1003.26	225.15
1003.55	225.14
1003.84	225.20
1004.13	225.24
1004.42	225.21
1004.71	225.23
1004.99	225.21
1005.28	225.22
1005.57	225.22
1005.86	225.20
1006.15	225.19
1006.44	225.18
1006.72	225.18
1007.01	225.17
1007.30	225.15
1007.59	225.14
1007.88	225.13
1008.17	225.12
1008.45	225.09
1008.74	225.02
1009.03	224.94
1009.32	224.95
1009.60	224.92
1009.89	224.88
1010.18	224.82
1010.47	224.84
1010.76	224.86
1011.04	224.87
1011.33	224.93
1011.62	224.93
1011.91	224.96
1012.19	224.97
1012.48	224.98
1012.77	224.97
1013.05	225.00
1013.34	224.97
1013.63	224.97
1013.92	225.01
1014.20	225.03
1014.49	225.04
1014.78	225.08
1015.06	225.05
1015.35	225.07
1015.64	225.11
1015.92	225.14
1016.21	225.19
1016.50	225.21
1016.78	225.19
1017.07	225.21
1017.36	225.21
1017.64	225.22
1017.93	225.22
1018.22	225.22
1018.50	225.22
1018.79	225.25
1019.08	225.22
1019.36	225.25
1019.65	225.25
1019.93	225.29
1020.22	225.28
1020.51	225.33
1020.79	225.32
1021.08	225.27
1021.36	225.33
1021.65	225.66
1021.94	225.29
1022.22	225.56
1022.51	224.82
1022.79	226.08
1023.08	225.03
1023.36	226.36
1023.65	224.75
>>>>>End Processed Spectral Data<<<<<
