SpectraSuite Data File
++++++++++++++++++++++++++++++++++++
Date: Fri Feb 01 17:11:24 EST 2013
User: group
Dark Spectrum Present: No
Reference Spectrum Present: No
Number of Sampled Component Spectra: 1
Spectrometers: USB2E7196
Integration Time (usec): 35000 (USB2E7196)
Spectra Averaged: 100 (USB2E7196)
Boxcar Smoothing: 10 (USB2E7196)
Correct for Electrical Dark: No (USB2E7196)
Strobe/Lamp Enabled: No (USB2E7196)
Correct for Detector Non-linearity: No (USB2E7196)
Correct for Stray Light: No (USB2E7196)
Number of Pixels in Processed Spectrum: 2048
>>>>>Begin Processed Spectral Data<<<<<
339.09	0.00
339.48	213.24
339.86	214.95
340.24	216.32
340.63	217.95
341.01	220.25
341.39	219.84
341.78	221.55
342.16	223.25
342.54	223.12
342.93	211.73
343.31	222.41
343.69	222.96
344.07	223.42
344.46	223.85
344.84	224.21
345.22	224.44
345.60	224.70
345.99	224.87
346.37	224.94
346.75	225.06
347.13	225.11
347.52	225.13
347.90	225.21
348.28	225.24
348.66	225.26
349.05	225.27
349.43	225.28
349.81	225.31
350.19	225.33
350.57	225.44
350.96	225.54
351.34	225.64
351.72	225.70
352.10	225.77
352.48	225.85
352.87	225.89
353.25	225.97
353.63	226.04
354.01	226.12
354.39	226.23
354.77	226.30
355.15	226.41
355.54	226.48
355.92	226.50
356.30	226.59
356.68	226.75
357.06	226.82
357.44	226.88
357.82	226.97
358.20	227.02
358.58	227.07
358.97	227.12
359.35	227.18
359.73	227.27
360.11	227.37
360.49	227.39
360.87	227.44
361.25	227.51
361.63	227.57
362.01	227.60
362.39	227.63
362.77	227.66
363.15	227.68
363.53	227.71
363.91	227.77
364.29	227.76
364.67	227.70
365.05	227.71
365.43	227.71
365.81	227.72
366.19	227.78
366.57	227.81
366.95	227.79
367.33	227.76
367.71	227.75
368.09	227.74
368.47	227.74
368.85	227.71
369.23	227.69
369.61	227.64
369.99	227.64
370.37	227.62
370.75	227.64
371.13	227.57
371.51	227.52
371.89	227.49
372.27	227.48
372.65	227.40
373.03	227.34
373.41	227.29
373.78	227.23
374.16	227.15
374.54	227.07
374.92	227.02
375.30	226.97
375.68	226.88
376.06	226.79
376.44	226.73
376.82	226.68
377.19	226.59
377.57	226.53
377.95	226.44
378.33	226.34
378.71	226.22
379.09	226.20
379.47	226.14
379.84	226.04
380.22	225.95
380.60	225.86
380.98	225.79
381.36	225.72
381.73	225.62
382.11	225.57
382.49	225.52
382.87	225.47
383.25	225.42
383.62	225.49
384.00	225.41
384.38	225.34
384.76	225.29
385.13	225.30
385.51	225.25
385.89	225.17
386.27	225.13
386.64	225.09
387.02	225.01
387.40	224.96
387.78	224.92
388.15	224.88
388.53	224.84
388.91	224.81
389.29	224.76
389.66	224.78
390.04	224.75
390.42	224.73
390.79	224.72
391.17	224.66
391.55	224.53
391.92	224.55
392.30	224.57
392.68	224.57
393.05	224.55
393.43	224.54
393.81	224.59
394.18	224.59
394.56	224.61
394.94	224.66
395.31	224.66
395.69	224.72
396.06	224.75
396.44	224.83
396.82	224.88
397.19	225.00
397.57	225.03
397.95	225.08
398.32	225.10
398.70	225.14
399.07	225.25
399.45	225.32
399.82	225.39
400.20	225.43
400.58	225.49
400.95	225.53
401.33	225.63
401.70	225.79
402.08	225.90
402.45	226.01
402.83	226.10
403.20	226.24
403.58	226.33
403.95	226.49
404.33	226.59
404.71	226.69
405.08	226.87
405.46	227.01
405.83	227.15
406.21	227.31
406.58	227.48
406.96	227.63
407.33	227.82
407.70	228.00
408.08	228.29
408.45	228.55
408.83	228.79
409.20	229.04
409.58	229.20
409.95	229.48
410.33	229.71
410.70	229.96
411.08	230.29
411.45	230.61
411.82	230.91
412.20	231.28
412.57	231.70
412.95	232.00
413.32	232.41
413.69	232.85
414.07	233.26
414.44	233.75
414.82	234.23
415.19	234.77
415.56	235.31
415.94	235.84
416.31	236.47
416.68	237.09
417.06	237.79
417.43	238.46
417.81	239.24
418.18	240.04
418.55	240.91
418.93	241.76
419.30	242.64
419.67	243.56
420.04	244.49
420.42	245.50
420.79	246.66
421.16	247.82
421.54	249.02
421.91	250.26
422.28	251.50
422.66	252.85
423.03	254.17
423.40	255.51
423.77	256.92
424.15	258.31
424.52	259.81
424.89	261.44
425.26	262.99
425.64	264.40
426.01	265.99
426.38	267.66
426.75	269.35
427.13	271.11
427.50	272.91
427.87	274.83
428.24	276.67
428.61	278.44
428.99	280.37
429.36	282.46
429.73	284.50
430.10	286.52
430.47	288.58
430.85	290.68
431.22	292.95
431.59	295.36
431.96	297.63
432.33	300.12
432.70	302.46
433.08	305.33
433.45	307.97
433.82	310.61
434.19	313.50
434.56	316.31
434.93	318.96
435.30	321.59
435.68	324.47
436.05	327.32
436.42	330.17
436.79	332.72
437.16	335.44
437.53	338.35
437.90	341.17
438.27	343.94
438.64	346.79
439.01	349.40
439.38	351.58
439.75	353.78
440.13	356.27
440.50	358.62
440.87	360.47
441.24	362.46
441.61	364.63
441.98	366.13
442.35	367.95
442.72	369.86
443.09	371.71
443.46	372.74
443.83	373.34
444.20	373.82
444.57	374.70
444.94	374.97
445.31	375.27
445.68	375.67
446.05	375.75
446.42	375.40
446.79	375.02
447.16	374.67
447.53	374.39
447.90	373.26
448.27	372.09
448.64	370.49
449.01	369.35
449.37	367.40
449.74	365.51
450.11	363.33
450.48	360.83
450.85	358.27
451.22	356.10
451.59	354.07
451.96	352.12
452.33	349.50
452.70	347.13
453.07	344.31
453.43	341.37
453.80	338.61
454.17	335.94
454.54	333.36
454.91	330.59
455.28	327.89
455.65	325.40
456.02	322.98
456.38	320.85
456.75	318.16
457.12	315.88
457.49	313.63
457.86	311.40
458.23	309.54
458.59	307.50
458.96	305.42
459.33	303.59
459.70	301.73
460.07	300.22
460.43	298.52
460.80	296.86
461.17	295.42
461.54	293.89
461.91	292.43
462.27	290.98
462.64	289.72
463.01	288.38
463.38	287.06
463.74	285.66
464.11	284.52
464.48	283.50
464.85	282.39
465.21	281.54
465.58	280.58
465.95	279.51
466.32	278.62
466.68	277.75
467.05	276.80
467.42	275.87
467.78	274.91
468.15	274.01
468.52	273.38
468.88	272.50
469.25	271.74
469.62	271.08
469.98	270.41
470.35	269.78
470.72	269.18
471.08	268.55
471.45	268.01
471.82	267.43
472.18	266.81
472.55	266.40
472.92	265.81
473.28	265.39
473.65	264.93
474.02	264.45
474.38	264.06
474.75	263.73
475.11	263.42
475.48	263.18
475.85	262.96
476.21	262.74
476.58	262.59
476.94	262.45
477.31	262.31
477.67	262.15
478.04	262.05
478.41	261.98
478.77	262.02
479.14	261.98
479.50	261.99
479.87	262.09
480.23	262.13
480.60	262.19
480.96	262.22
481.33	262.40
481.69	262.58
482.06	262.79
482.42	263.02
482.79	263.26
483.15	263.53
483.52	263.91
483.88	264.19
484.25	264.51
484.61	264.91
484.98	265.35
485.34	265.88
485.71	266.40
486.07	267.01
486.44	267.52
486.80	268.17
487.17	268.87
487.53	269.67
487.90	270.56
488.26	271.55
488.62	272.57
488.99	273.52
489.35	274.58
489.72	275.69
490.08	276.87
490.44	278.08
490.81	279.43
491.17	280.76
491.54	282.29
491.90	283.87
492.26	285.53
492.63	287.24
492.99	289.07
493.36	291.01
493.72	293.04
494.08	295.17
494.45	297.48
494.81	299.87
495.17	302.28
495.54	304.84
495.90	307.47
496.26	310.28
496.63	313.25
496.99	316.37
497.35	319.61
497.72	323.03
498.08	326.58
498.44	330.27
498.80	334.18
499.17	338.19
499.53	342.35
499.89	346.72
500.26	351.24
500.62	355.90
500.98	360.84
501.34	365.94
501.71	371.22
502.07	376.63
502.43	382.21
502.79	388.04
503.16	394.02
503.52	400.31
503.88	406.69
504.24	413.29
504.60	420.08
504.97	427.20
505.33	434.44
505.69	442.10
506.05	449.82
506.41	457.64
506.78	465.71
507.14	474.07
507.50	482.68
507.86	491.57
508.22	500.70
508.59	509.79
508.95	519.23
509.31	528.96
509.67	538.95
510.03	549.13
510.39	559.53
510.75	570.22
511.12	581.01
511.48	592.17
511.84	603.40
512.20	614.84
512.56	626.56
512.92	638.58
513.28	650.74
513.64	663.03
514.00	675.62
514.37	688.42
514.73	701.30
515.09	714.16
515.45	727.31
515.81	740.64
516.17	754.42
516.53	768.35
516.89	782.23
517.25	796.19
517.61	810.31
517.97	824.59
518.33	838.85
518.69	853.37
519.05	868.12
519.41	883.07
519.77	898.25
520.13	913.46
520.49	928.58
520.85	943.68
521.21	959.11
521.57	975.07
521.93	990.50
522.29	1006.57
522.65	1022.55
523.01	1038.37
523.37	1054.18
523.73	1070.05
524.09	1085.79
524.45	1101.91
524.81	1118.19
525.17	1134.72
525.53	1151.17
525.89	1167.69
526.25	1184.19
526.61	1200.19
526.97	1216.63
527.33	1232.94
527.68	1249.14
528.04	1265.34
528.40	1281.53
528.76	1298.19
529.12	1314.35
529.48	1330.97
529.84	1346.58
530.20	1362.88
530.56	1379.58
530.91	1396.42
531.27	1412.95
531.63	1429.11
531.99	1445.25
532.35	1460.98
532.71	1476.57
533.07	1492.55
533.42	1508.16
533.78	1524.01
534.14	1540.01
534.50	1555.07
534.86	1570.53
535.21	1585.42
535.57	1600.96
535.93	1616.18
536.29	1630.76
536.65	1645.62
537.00	1660.00
537.36	1675.14
537.72	1689.29
538.08	1703.40
538.44	1716.97
538.79	1730.47
539.15	1743.74
539.51	1757.16
539.87	1771.12
540.22	1784.50
540.58	1797.80
540.94	1810.64
541.29	1823.00
541.65	1835.41
542.01	1848.34
542.37	1860.36
542.72	1872.55
543.08	1884.14
543.44	1896.40
543.79	1907.51
544.15	1918.23
544.51	1929.70
544.87	1940.48
545.22	1951.30
545.58	1961.35
545.94	1971.08
546.29	1980.91
546.65	1990.84
547.01	2000.14
547.36	2008.79
547.72	2017.43
548.07	2025.51
548.43	2033.70
548.79	2041.75
549.14	2049.46
549.50	2056.86
549.86	2064.53
550.21	2071.99
550.57	2079.23
550.92	2086.01
551.28	2093.00
551.64	2100.19
551.99	2106.72
552.35	2113.01
552.70	2119.07
553.06	2125.16
553.41	2131.75
553.77	2137.81
554.13	2143.74
554.48	2149.78
554.84	2155.49
555.19	2160.48
555.55	2165.73
555.90	2170.39
556.26	2175.50
556.61	2180.14
556.97	2184.61
557.32	2188.95
557.68	2193.20
558.03	2197.49
558.39	2201.01
558.74	2205.88
559.10	2209.87
559.45	2213.65
559.81	2217.89
560.16	2221.98
560.52	2225.52
560.87	2229.03
561.23	2231.89
561.58	2235.08
561.94	2238.03
562.29	2240.42
562.64	2243.67
563.00	2246.35
563.35	2249.95
563.71	2253.23
564.06	2256.61
564.42	2259.73
564.77	2262.60
565.12	2265.20
565.48	2267.45
565.83	2269.75
566.19	2271.28
566.54	2272.29
566.89	2273.74
567.25	2274.75
567.60	2276.17
567.96	2277.99
568.31	2278.96
568.66	2280.25
569.02	2281.11
569.37	2281.72
569.72	2282.98
570.08	2283.44
570.43	2283.75
570.78	2283.64
571.14	2282.30
571.49	2281.10
571.84	2280.85
572.20	2279.79
572.55	2278.89
572.90	2277.39
573.26	2276.22
573.61	2274.58
573.96	2273.22
574.31	2270.43
574.67	2267.64
575.02	2264.24
575.37	2261.07
575.72	2257.65
576.08	2254.37
576.43	2251.05
576.78	2247.70
577.13	2244.49
577.49	2241.24
577.84	2238.01
578.19	2234.40
578.54	2231.19
578.90	2227.52
579.25	2222.22
579.60	2217.64
579.95	2212.91
580.30	2208.23
580.66	2203.26
581.01	2198.51
581.36	2193.77
581.71	2190.01
582.06	2185.99
582.42	2181.98
582.77	2177.06
583.12	2172.72
583.47	2168.64
583.82	2164.33
584.17	2159.04
584.53	2153.87
584.88	2148.55
585.23	2143.13
585.58	2137.80
585.93	2132.41
586.28	2127.60
586.63	2122.86
586.98	2118.01
587.34	2113.39
587.69	2108.59
588.04	2103.60
588.39	2098.18
588.74	2091.75
589.09	2085.70
589.44	2079.08
589.79	2072.99
590.14	2067.46
590.49	2060.86
590.84	2054.36
591.19	2048.42
591.54	2042.27
591.89	2035.29
592.25	2028.89
592.60	2021.90
592.95	2014.71
593.30	2007.58
593.65	2000.06
594.00	1993.09
594.35	1986.00
594.70	1978.11
595.05	1971.35
595.40	1964.20
595.75	1956.95
596.10	1951.12
596.45	1944.61
596.80	1938.54
597.15	1932.22
597.50	1925.49
597.85	1919.17
598.19	1912.71
598.54	1905.81
598.89	1899.39
599.24	1893.42
599.59	1886.97
599.94	1880.72
600.29	1874.46
600.64	1867.85
600.99	1860.66
601.34	1854.03
601.69	1846.96
602.04	1840.31
602.39	1832.95
602.74	1826.25
603.08	1819.66
603.43	1812.91
603.78	1805.63
604.13	1798.47
604.48	1791.31
604.83	1784.36
605.18	1777.74
605.53	1769.77
605.87	1761.71
606.22	1754.29
606.57	1746.45
606.92	1738.85
607.27	1731.81
607.62	1724.94
607.96	1717.85
608.31	1711.48
608.66	1703.86
609.01	1696.40
609.36	1688.97
609.70	1681.03
610.05	1673.00
610.40	1665.32
610.75	1657.02
611.10	1649.32
611.44	1640.77
611.79	1632.71
612.14	1624.15
612.49	1615.00
612.83	1606.71
613.18	1598.56
613.53	1590.58
613.88	1582.01
614.22	1573.85
614.57	1565.16
614.92	1557.06
615.27	1549.70
615.61	1541.39
615.96	1533.38
616.31	1525.70
616.65	1518.26
617.00	1510.64
617.35	1503.01
617.70	1494.77
618.04	1486.42
618.39	1478.26
618.74	1470.86
619.08	1462.53
619.43	1454.95
619.78	1447.88
620.12	1440.88
620.47	1433.37
620.82	1425.07
621.16	1417.68
621.51	1410.12
621.85	1402.41
622.20	1394.03
622.55	1385.51
622.89	1377.56
623.24	1369.79
623.59	1362.37
623.93	1354.76
624.28	1347.55
624.62	1339.99
624.97	1332.82
625.32	1325.88
625.66	1318.84
626.01	1311.59
626.35	1304.28
626.70	1296.50
627.04	1288.84
627.39	1280.92
627.73	1273.55
628.08	1266.73
628.43	1259.72
628.77	1252.33
629.12	1244.90
629.46	1237.65
629.81	1230.12
630.15	1222.85
630.50	1215.60
630.84	1207.50
631.19	1199.54
631.53	1191.92
631.88	1184.28
632.22	1176.57
632.57	1169.32
632.91	1161.73
633.26	1154.38
633.60	1146.86
633.95	1139.53
634.29	1132.37
634.64	1125.69
634.98	1118.37
635.32	1111.29
635.67	1104.39
636.01	1097.70
636.36	1090.87
636.70	1084.39
637.05	1077.84
637.39	1071.40
637.73	1064.87
638.08	1059.02
638.42	1053.09
638.77	1046.76
639.11	1040.29
639.45	1033.81
639.80	1027.11
640.14	1020.76
640.49	1014.19
640.83	1007.78
641.17	1001.68
641.52	995.37
641.86	988.84
642.20	982.94
642.55	976.37
642.89	969.93
643.23	963.31
643.58	957.60
643.92	951.35
644.26	945.33
644.61	939.23
644.95	933.25
645.29	926.65
645.64	919.91
645.98	913.43
646.32	907.39
646.66	901.40
647.01	895.56
647.35	889.83
647.69	883.85
648.04	878.38
648.38	872.64
648.72	866.70
649.06	860.65
649.41	854.66
649.75	848.88
650.09	842.90
650.43	837.14
650.78	830.96
651.12	825.00
651.46	819.26
651.80	813.49
652.14	808.02
652.49	802.67
652.83	797.48
653.17	791.89
653.51	786.35
653.85	780.95
654.20	775.39
654.54	769.38
654.88	763.59
655.22	757.68
655.56	751.90
655.90	746.36
656.25	741.10
656.59	735.73
656.93	730.57
657.27	725.47
657.61	720.03
657.95	714.86
658.29	709.73
658.64	704.50
658.98	699.15
659.32	693.61
659.66	688.36
660.00	683.09
660.34	678.10
660.68	673.15
661.02	668.06
661.36	663.35
661.70	658.90
662.05	654.66
662.39	650.46
662.73	646.02
663.07	641.66
663.41	637.24
663.75	632.81
664.09	628.25
664.43	623.82
664.77	619.70
665.11	615.50
665.45	611.33
665.79	607.25
666.13	603.21
666.47	599.16
666.81	595.00
667.15	590.84
667.49	586.96
667.83	583.08
668.17	579.16
668.51	575.00
668.85	570.94
669.19	567.01
669.53	563.12
669.87	559.24
670.21	555.50
670.55	551.80
670.89	548.39
671.23	544.95
671.57	541.44
671.91	537.96
672.25	534.41
672.58	530.92
672.92	527.49
673.26	524.25
673.60	521.05
673.94	517.95
674.28	514.99
674.62	512.03
674.96	508.98
675.30	506.13
675.64	503.23
675.97	500.41
676.31	497.57
676.65	494.60
676.99	491.89
677.33	488.99
677.67	486.17
678.01	483.08
678.34	480.18
678.68	477.30
679.02	474.40
679.36	471.63
679.70	468.86
680.04	466.10
680.37	463.30
680.71	460.52
681.05	457.85
681.39	455.14
681.73	452.48
682.06	449.91
682.40	447.33
682.74	444.80
683.08	442.20
683.42	439.54
683.75	437.10
684.09	434.53
684.43	432.11
684.77	429.66
685.10	427.30
685.44	424.93
685.78	422.61
686.12	420.40
686.45	418.10
686.79	415.87
687.13	413.65
687.46	411.41
687.80	409.29
688.14	407.06
688.48	404.98
688.81	402.76
689.15	400.63
689.49	398.44
689.82	396.36
690.16	394.29
690.50	392.34
690.83	390.36
691.17	388.35
691.51	386.43
691.84	384.55
692.18	382.64
692.52	380.66
692.85	378.74
693.19	376.87
693.52	375.04
693.86	373.17
694.20	371.38
694.53	369.65
694.87	367.78
695.21	365.96
695.54	364.11
695.88	362.34
696.21	360.56
696.55	358.91
696.88	357.21
697.22	355.52
697.56	353.88
697.89	352.22
698.23	350.65
698.56	349.10
698.90	347.51
699.23	345.92
699.57	344.36
699.90	342.81
700.24	341.20
700.58	339.63
700.91	338.15
701.25	336.68
701.58	335.31
701.92	333.93
702.25	332.59
702.59	331.20
702.92	329.89
703.26	328.60
703.59	327.29
703.93	326.09
704.26	324.83
704.60	323.55
704.93	322.26
705.26	320.99
705.60	319.75
705.93	318.56
706.27	317.46
706.60	316.41
706.94	315.30
707.27	314.17
707.61	313.08
707.94	312.03
708.27	310.91
708.61	309.76
708.94	308.73
709.28	307.70
709.61	306.75
709.94	305.78
710.28	304.75
710.61	303.71
710.95	302.60
711.28	301.70
711.61	300.74
711.95	299.81
712.28	298.81
712.61	297.80
712.95	296.89
713.28	296.02
713.61	295.10
713.95	294.24
714.28	293.37
714.61	292.51
714.95	291.68
715.28	290.86
715.61	289.99
715.95	289.10
716.28	288.25
716.61	287.38
716.95	286.57
717.28	285.80
717.61	285.03
717.94	284.31
718.28	283.48
718.61	282.72
718.94	282.01
719.27	281.37
719.61	280.75
719.94	280.04
720.27	279.32
720.60	278.67
720.94	278.04
721.27	277.47
721.60	276.84
721.93	276.22
722.27	275.64
722.60	275.09
722.93	274.56
723.26	274.04
723.59	273.45
723.93	272.88
724.26	272.34
724.59	271.77
724.92	271.20
725.25	270.72
725.59	270.21
725.92	269.72
726.25	269.20
726.58	268.68
726.91	268.18
727.24	267.69
727.57	267.19
727.91	266.66
728.24	266.17
728.57	265.75
728.90	265.31
729.23	264.84
729.56	264.41
729.89	263.93
730.22	263.44
730.55	263.01
730.89	262.58
731.22	262.15
731.55	261.73
731.88	261.32
732.21	260.88
732.54	260.45
732.87	260.02
733.20	259.65
733.53	259.24
733.86	258.86
734.19	258.48
734.52	258.08
734.85	257.77
735.18	257.39
735.51	256.99
735.84	256.64
736.17	256.28
736.50	255.87
736.83	255.63
737.16	255.30
737.49	254.93
737.82	254.61
738.15	254.25
738.48	253.92
738.81	253.59
739.14	253.23
739.47	252.94
739.80	252.63
740.13	252.31
740.46	252.00
740.79	251.67
741.12	251.34
741.45	251.01
741.78	250.67
742.11	250.40
742.44	250.08
742.77	249.78
743.10	249.46
743.43	249.17
743.75	248.76
744.08	248.61
744.41	248.34
744.74	248.07
745.07	247.82
745.40	247.55
745.73	247.33
746.06	247.09
746.39	246.81
746.71	246.53
747.04	246.29
747.37	246.04
747.70	245.81
748.03	245.56
748.36	245.34
748.68	245.11
749.01	244.85
749.34	244.62
749.67	244.40
750.00	244.20
750.33	244.05
750.65	243.82
750.98	243.48
751.31	243.24
751.64	242.98
751.97	242.79
752.29	242.56
752.62	242.28
752.95	242.09
753.28	241.89
753.60	241.73
753.93	241.51
754.26	241.30
754.59	241.06
754.91	240.86
755.24	240.64
755.57	240.41
755.90	240.21
756.22	240.03
756.55	239.82
756.88	239.60
757.20	239.34
757.53	239.16
757.86	238.97
758.19	238.87
758.51	238.74
758.84	238.52
759.17	238.37
759.49	238.22
759.82	238.09
760.15	237.92
760.47	237.74
760.80	237.57
761.13	237.48
761.45	237.30
761.78	237.13
762.11	237.02
762.43	236.89
762.76	236.74
763.08	236.58
763.41	236.45
763.74	236.31
764.06	236.18
764.39	236.05
764.71	235.89
765.04	235.71
765.37	235.53
765.69	235.41
766.02	235.27
766.34	235.13
766.67	234.96
767.00	234.84
767.32	234.74
767.65	234.69
767.97	234.52
768.30	234.43
768.62	234.35
768.95	234.24
769.27	234.14
769.60	234.07
769.92	233.94
770.25	233.81
770.57	233.71
770.90	233.60
771.22	233.47
771.55	233.40
771.87	233.31
772.20	233.23
772.52	233.20
772.85	233.22
773.17	233.15
773.50	233.04
773.82	232.92
774.15	232.80
774.47	232.67
774.80	232.55
775.12	232.47
775.45	232.36
775.77	232.28
776.09	232.20
776.42	232.14
776.74	232.11
777.07	232.01
777.39	231.94
777.72	231.85
778.04	231.78
778.36	231.72
778.69	231.66
779.01	231.59
779.33	231.43
779.66	231.25
779.98	231.16
780.31	231.11
780.63	231.10
780.95	231.02
781.28	230.95
781.60	230.92
781.92	230.85
782.25	230.82
782.57	230.73
782.89	230.67
783.22	230.58
783.54	230.48
783.86	230.47
784.19	230.40
784.51	230.39
784.83	230.35
785.16	230.28
785.48	230.25
785.80	230.24
786.12	230.22
786.45	230.19
786.77	230.15
787.09	230.13
787.42	230.07
787.74	230.02
788.06	230.00
788.38	229.96
788.71	229.95
789.03	229.87
789.35	229.83
789.67	229.77
789.99	229.74
790.32	229.68
790.64	229.62
790.96	229.66
791.28	229.58
791.61	229.56
791.93	229.54
792.25	229.49
792.57	229.51
792.89	229.46
793.21	229.43
793.54	229.41
793.86	229.37
794.18	229.34
794.50	229.35
794.82	229.33
795.14	229.27
795.47	229.25
795.79	229.23
796.11	229.21
796.43	229.19
796.75	229.16
797.07	229.18
797.39	229.16
797.71	229.09
798.04	229.09
798.36	229.04
798.68	228.99
799.00	228.97
799.32	228.85
799.64	228.84
799.96	228.78
800.28	228.74
800.60	228.70
800.92	228.65
801.24	228.61
801.56	228.54
801.89	228.52
802.21	228.51
802.53	228.50
802.85	228.47
803.17	228.48
803.49	228.39
803.81	228.32
804.13	228.29
804.45	228.22
804.77	228.15
805.09	228.13
805.41	228.09
805.73	228.03
806.05	227.99
806.37	227.94
806.69	227.92
807.01	227.89
807.33	227.88
807.65	227.81
807.97	227.83
808.28	227.82
808.60	227.80
808.92	227.75
809.24	227.73
809.56	227.69
809.88	227.61
810.20	227.58
810.52	227.57
810.84	227.51
811.16	227.47
811.48	227.44
811.80	227.45
812.12	227.40
812.43	227.39
812.75	227.40
813.07	227.33
813.39	227.32
813.71	227.28
814.03	227.25
814.35	227.24
814.67	227.13
814.98	227.05
815.30	227.02
815.62	226.98
815.94	226.88
816.26	226.91
816.58	226.90
816.89	226.89
817.21	226.84
817.53	226.83
817.85	226.86
818.17	226.83
818.48	226.74
818.80	226.78
819.12	226.77
819.44	226.71
819.76	226.69
820.07	226.67
820.39	226.63
820.71	226.59
821.03	226.59
821.34	226.58
821.66	226.63
821.98	226.61
822.30	226.59
822.61	226.64
822.93	226.56
823.25	226.57
823.57	226.56
823.88	226.60
824.20	226.59
824.52	226.57
824.83	226.59
825.15	226.57
825.47	226.54
825.79	226.50
826.10	226.52
826.42	226.51
826.74	226.53
827.05	226.50
827.37	226.52
827.69	226.51
828.00	226.52
828.32	226.48
828.64	226.46
828.95	226.50
829.27	226.51
829.58	226.51
829.90	226.52
830.22	226.55
830.53	226.49
830.85	226.49
831.17	226.47
831.48	226.45
831.80	226.47
832.11	226.47
832.43	226.48
832.75	226.49
833.06	226.56
833.38	226.52
833.69	226.57
834.01	226.53
834.32	226.54
834.64	226.54
834.96	226.56
835.27	226.58
835.59	226.52
835.90	226.49
836.22	226.47
836.53	226.43
836.85	226.39
837.16	226.49
837.48	226.49
837.79	226.51
838.11	226.51
838.42	226.52
838.74	226.53
839.05	226.49
839.37	226.43
839.68	226.41
840.00	226.42
840.31	226.41
840.63	226.41
840.94	226.34
841.26	226.31
841.57	226.30
841.88	226.31
842.20	226.31
842.51	226.27
842.83	226.28
843.14	226.35
843.46	226.36
843.77	226.32
844.08	226.31
844.40	226.24
844.71	226.21
845.03	226.16
845.34	226.11
845.65	226.09
845.97	226.09
846.28	226.05
846.60	226.06
846.91	226.02
847.22	226.04
847.54	226.10
847.85	226.08
848.16	226.07
848.48	226.01
848.79	226.04
849.10	226.06
849.42	226.04
849.73	225.96
850.04	225.92
850.36	225.83
850.67	225.82
850.98	225.85
851.30	225.87
851.61	225.90
851.92	225.90
852.23	225.96
852.55	225.97
852.86	225.97
853.17	225.93
853.49	225.95
853.80	225.96
854.11	225.92
854.42	225.96
854.74	225.94
855.05	225.98
855.36	225.92
855.67	225.92
855.99	225.95
856.30	226.04
856.61	226.04
856.92	226.05
857.23	226.05
857.55	226.01
857.86	225.99
858.17	226.00
858.48	225.99
858.79	225.95
859.11	225.94
859.42	225.92
859.73	225.92
860.04	225.90
860.35	225.86
860.66	225.83
860.98	225.81
861.29	225.84
861.60	225.84
861.91	225.88
862.22	225.90
862.53	225.87
862.84	225.77
863.16	225.83
863.47	225.81
863.78	225.83
864.09	225.86
864.40	225.88
864.71	225.88
865.02	225.88
865.33	225.86
865.64	225.85
865.95	225.90
866.27	225.99
866.58	226.00
866.89	226.02
867.20	226.03
867.51	226.02
867.82	226.00
868.13	226.00
868.44	225.98
868.75	225.98
869.06	226.01
869.37	226.01
869.68	225.97
869.99	226.01
870.30	226.01
870.61	226.00
870.92	225.98
871.23	225.93
871.54	225.97
871.85	226.00
872.16	226.01
872.47	225.99
872.78	225.89
873.09	225.88
873.40	225.89
873.71	225.88
874.02	225.87
874.33	225.86
874.64	225.86
874.95	225.85
875.26	225.83
875.56	225.77
875.87	225.80
876.18	225.78
876.49	225.88
876.80	225.86
877.11	225.82
877.42	225.82
877.73	225.83
878.04	225.81
878.35	225.82
878.66	225.85
878.96	225.84
879.27	225.83
879.58	225.81
879.89	225.77
880.20	225.81
880.51	225.82
880.82	225.82
881.12	225.79
881.43	225.76
881.74	225.74
882.05	225.75
882.36	225.72
882.67	225.71
882.97	225.59
883.28	225.57
883.59	225.57
883.90	225.59
884.21	225.60
884.51	225.57
884.82	225.54
885.13	225.51
885.44	225.49
885.74	225.48
886.05	225.46
886.36	225.45
886.67	225.40
886.98	225.44
887.28	225.43
887.59	225.42
887.90	225.42
888.20	225.40
888.51	225.39
888.82	225.37
889.13	225.42
889.43	225.47
889.74	225.48
890.05	225.48
890.35	225.42
890.66	225.37
890.97	225.38
891.28	225.36
891.58	225.37
891.89	225.38
892.20	225.35
892.50	225.35
892.81	225.35
893.12	225.34
893.42	225.28
893.73	225.30
894.04	225.30
894.34	225.30
894.65	225.32
894.95	225.31
895.26	225.30
895.57	225.31
895.87	225.23
896.18	225.24
896.48	225.25
896.79	225.25
897.10	225.25
897.40	225.23
897.71	225.22
898.01	225.20
898.32	225.20
898.63	225.22
898.93	225.22
899.24	225.23
899.54	225.23
899.85	225.22
900.15	225.21
900.46	225.19
900.76	225.20
901.07	225.19
901.38	225.21
901.68	225.25
901.99	225.22
902.29	225.23
902.60	225.26
902.90	225.26
903.21	225.32
903.51	225.32
903.82	225.36
904.12	225.40
904.43	225.39
904.73	225.41
905.03	225.40
905.34	225.54
905.64	225.52
905.95	225.54
906.25	225.53
906.56	225.55
906.86	225.59
907.17	225.60
907.47	225.60
907.77	225.61
908.08	225.60
908.38	225.58
908.69	225.60
908.99	225.60
909.30	225.63
909.60	225.62
909.90	225.63
910.21	225.60
910.51	225.55
910.81	225.56
911.12	225.56
911.42	225.56
911.73	225.45
912.03	225.45
912.33	225.45
912.64	225.47
912.94	225.43
913.24	225.38
913.55	225.36
913.85	225.34
914.15	225.33
914.46	225.33
914.76	225.32
915.06	225.30
915.37	225.25
915.67	225.23
915.97	225.19
916.27	225.15
916.58	225.16
916.88	225.16
917.18	225.12
917.49	225.17
917.79	225.13
918.09	225.11
918.39	225.14
918.70	225.14
919.00	225.12
919.30	225.18
919.60	225.17
919.91	225.16
920.21	225.18
920.51	225.15
920.81	225.12
921.12	225.12
921.42	225.11
921.72	225.12
922.02	225.08
922.32	225.12
922.63	225.11
922.93	225.14
923.23	225.14
923.53	225.17
923.83	225.07
924.13	225.11
924.44	225.13
924.74	225.12
925.04	225.17
925.34	225.14
925.64	225.09
925.94	225.09
926.24	225.15
926.55	225.11
926.85	225.13
927.15	225.11
927.45	225.10
927.75	225.07
928.05	225.06
928.35	225.08
928.65	225.07
928.95	225.08
929.26	225.03
929.56	225.06
929.86	225.06
930.16	225.08
930.46	225.05
930.76	225.04
931.06	225.00
931.36	224.94
931.66	224.97
931.96	224.96
932.26	224.98
932.56	224.91
932.86	224.93
933.16	224.95
933.46	224.97
933.76	224.96
934.06	225.01
934.36	225.03
934.66	225.02
934.96	225.02
935.26	225.07
935.56	225.12
935.86	225.11
936.16	225.08
936.46	225.09
936.76	225.10
937.06	225.08
937.36	225.11
937.66	225.13
937.96	225.16
938.26	225.18
938.56	225.14
938.86	225.16
939.16	225.18
939.46	225.19
939.76	225.21
940.06	225.25
940.35	225.23
940.65	225.21
940.95	225.23
941.25	225.21
941.55	225.19
941.85	225.17
942.15	225.17
942.45	225.21
942.75	225.20
943.04	225.21
943.34	225.28
943.64	225.26
943.94	225.25
944.24	225.23
944.54	225.24
944.84	225.27
945.13	225.27
945.43	225.25
945.73	225.25
946.03	225.26
946.33	225.26
946.62	225.26
946.92	225.24
947.22	225.24
947.52	225.28
947.82	225.24
948.11	225.27
948.41	225.26
948.71	225.23
949.01	225.24
949.31	225.24
949.60	225.20
949.90	225.23
950.20	225.20
950.50	225.20
950.79	225.18
951.09	225.17
951.39	225.20
951.69	225.19
951.98	225.19
952.28	225.20
952.58	225.17
952.87	225.15
953.17	225.19
953.47	225.15
953.76	225.12
954.06	225.13
954.36	225.12
954.66	225.14
954.95	225.17
955.25	225.16
955.55	225.17
955.84	225.14
956.14	225.17
956.44	225.17
956.73	225.13
957.03	225.13
957.32	225.11
957.62	225.09
957.92	225.12
958.21	225.09
958.51	225.16
958.81	225.16
959.10	225.15
959.40	225.15
959.69	225.15
959.99	225.16
960.29	225.16
960.58	225.13
960.88	225.14
961.17	225.11
961.47	225.12
961.76	225.08
962.06	225.10
962.36	225.05
962.65	225.06
962.95	225.05
963.24	225.02
963.54	225.05
963.83	225.04
964.13	225.02
964.42	225.00
964.72	224.92
965.01	224.89
965.31	224.90
965.60	224.89
965.90	224.94
966.19	224.93
966.49	224.93
966.78	224.93
967.08	224.90
967.37	224.90
967.67	224.90
967.96	224.92
968.26	224.92
968.55	224.95
968.85	224.92
969.14	224.92
969.43	224.97
969.73	224.97
970.02	224.96
970.32	224.94
970.61	224.95
970.91	224.91
971.20	224.89
971.49	224.89
971.79	224.89
972.08	224.84
972.38	224.84
972.67	224.83
972.96	224.86
973.26	224.87
973.55	224.90
973.85	224.91
974.14	224.91
974.43	224.92
974.73	224.91
975.02	224.93
975.31	224.93
975.61	224.90
975.90	224.89
976.19	224.89
976.49	224.90
976.78	224.91
977.07	224.95
977.37	225.01
977.66	225.03
977.95	225.02
978.24	225.05
978.54	225.10
978.83	225.07
979.12	225.06
979.42	225.04
979.71	225.03
980.00	225.03
980.29	225.04
980.59	225.00
980.88	225.05
981.17	225.07
981.46	225.11
981.76	225.15
982.05	225.16
982.34	225.20
982.63	225.25
982.93	225.31
983.22	225.30
983.51	225.29
983.80	225.33
984.09	225.39
984.39	225.38
984.68	225.37
984.97	225.42
985.26	225.39
985.55	225.47
985.85	225.44
986.14	225.47
986.43	225.49
986.72	225.52
987.01	225.48
987.30	225.47
987.59	225.46
987.89	225.48
988.18	225.47
988.47	225.43
988.76	225.42
989.05	225.35
989.34	225.37
989.63	225.41
989.92	225.39
990.22	225.33
990.51	225.31
990.80	225.29
991.09	225.24
991.38	225.25
991.67	225.17
991.96	225.18
992.25	225.16
992.54	225.14
992.83	225.11
993.12	225.10
993.41	225.10
993.70	225.12
993.99	225.08
994.28	225.08
994.58	225.11
994.87	225.04
995.16	225.05
995.45	225.02
995.74	224.95
996.03	224.93
996.32	224.93
996.61	224.97
996.90	224.97
997.19	224.98
997.48	225.01
997.77	225.02
998.06	224.98
998.34	224.94
998.63	224.94
998.92	224.92
999.21	224.92
999.50	224.90
999.79	224.81
1000.08	224.82
1000.37	224.82
1000.66	224.79
1000.95	224.82
1001.24	224.79
1001.53	224.79
1001.82	224.81
1002.11	224.79
1002.40	224.79
1002.68	224.80
1002.97	224.84
1003.26	224.82
1003.55	224.78
1003.84	224.84
1004.13	224.89
1004.42	224.91
1004.71	224.87
1004.99	224.87
1005.28	224.90
1005.57	224.90
1005.86	224.96
1006.15	224.97
1006.44	224.95
1006.72	224.96
1007.01	224.98
1007.30	225.00
1007.59	225.00
1007.88	225.02
1008.17	225.04
1008.45	225.04
1008.74	225.04
1009.03	225.03
1009.32	225.06
1009.60	225.07
1009.89	225.02
1010.18	224.99
1010.47	224.99
1010.76	225.02
1011.04	225.08
1011.33	225.07
1011.62	225.11
1011.91	225.13
1012.19	225.15
1012.48	225.13
1012.77	225.14
1013.05	225.18
1013.34	225.17
1013.63	225.20
1013.92	225.19
1014.20	225.17
1014.49	225.18
1014.78	225.16
1015.06	225.13
1015.35	225.12
1015.64	225.16
1015.92	225.17
1016.21	225.20
1016.50	225.22
1016.78	225.24
1017.07	225.24
1017.36	225.25
1017.64	225.27
1017.93	225.26
1018.22	225.26
1018.50	225.30
1018.79	225.28
1019.08	225.24
1019.36	225.24
1019.65	225.24
1019.93	225.26
1020.22	225.32
1020.51	225.35
1020.79	225.37
1021.08	225.50
1021.36	225.03
1021.65	224.75
1021.94	225.47
1022.22	224.85
1022.51	225.49
1022.79	225.42
1023.08	226.00
1023.36	225.79
1023.65	225.51
>>>>>End Processed Spectral Data<<<<<
