SpectraSuite Data File
++++++++++++++++++++++++++++++++++++
Date: Wed Nov 07 18:29:58 EST 2012
User: group
Dark Spectrum Present: No
Reference Spectrum Present: No
Number of Sampled Component Spectra: 1
Spectrometers: USB2E7196
Integration Time (usec): 1000000 (USB2E7196)
Spectra Averaged: 1 (USB2E7196)
Boxcar Smoothing: 10 (USB2E7196)
Correct for Electrical Dark: No (USB2E7196)
Strobe/Lamp Enabled: No (USB2E7196)
Correct for Detector Non-linearity: No (USB2E7196)
Correct for Stray Light: No (USB2E7196)
Number of Pixels in Processed Spectrum: 2048
>>>>>Begin Processed Spectral Data<<<<<
339.09	0.00
339.48	218.00
339.86	221.00
340.24	226.00
340.63	229.00
341.01	270.00
341.39	224.00
341.78	236.00
342.16	239.00
342.54	238.00
342.93	226.76
343.31	238.00
343.69	238.90
344.07	239.57
344.46	240.48
344.84	241.00
345.22	239.48
345.60	240.29
345.99	240.38
346.37	240.24
346.75	240.05
347.13	240.10
347.52	239.86
347.90	240.81
348.28	240.57
348.66	241.33
349.05	240.38
349.43	240.38
349.81	240.62
350.19	240.52
350.57	240.67
350.96	240.90
351.34	241.10
351.72	241.05
352.10	241.10
352.48	240.62
352.87	240.48
353.25	240.24
353.63	239.71
354.01	239.33
354.39	239.33
354.77	239.43
355.15	240.29
355.54	240.05
355.92	238.90
356.30	238.67
356.68	240.00
357.06	240.14
357.44	239.52
357.82	239.14
358.20	239.33
358.58	238.86
358.97	238.76
359.35	239.14
359.73	239.19
360.11	239.14
360.49	239.05
360.87	239.14
361.25	239.52
361.63	240.24
362.01	240.52
362.39	240.62
362.77	240.62
363.15	240.05
363.53	240.14
363.91	240.38
364.29	240.19
364.67	237.52
365.05	237.62
365.43	237.81
365.81	238.24
366.19	239.52
366.57	240.81
366.95	240.62
367.33	239.81
367.71	240.00
368.09	240.43
368.47	240.57
368.85	240.29
369.23	240.43
369.61	239.71
369.99	240.67
370.37	240.90
370.75	242.19
371.13	241.95
371.51	241.52
371.89	241.81
372.27	242.00
372.65	242.14
373.03	242.48
373.41	241.95
373.78	241.57
374.16	240.00
374.54	238.76
374.92	238.33
375.30	238.38
375.68	237.76
376.06	237.76
376.44	237.67
376.82	238.05
377.19	238.19
377.57	238.19
377.95	237.19
378.33	237.00
378.71	235.67
379.09	236.00
379.47	236.71
379.84	236.43
380.22	236.52
380.60	236.38
380.98	235.86
381.36	236.19
381.73	236.19
382.11	236.86
382.49	237.43
382.87	237.33
383.25	237.38
383.62	240.33
384.00	239.71
384.38	239.76
384.76	239.95
385.13	240.90
385.51	241.29
385.89	241.14
386.27	241.19
386.64	241.43
387.02	240.90
387.40	240.48
387.78	240.81
388.15	240.90
388.53	240.95
388.91	241.19
389.29	240.90
389.66	241.38
390.04	240.67
390.42	240.95
390.79	241.10
391.17	241.52
391.55	238.81
391.92	239.14
392.30	239.48
392.68	239.05
393.05	238.67
393.43	238.67
393.81	238.81
394.18	238.38
394.56	238.43
394.94	238.71
395.31	238.43
395.69	238.71
396.06	238.90
396.44	239.00
396.82	238.76
397.19	240.05
397.57	239.43
397.95	240.10
398.32	239.10
398.70	239.14
399.07	239.52
399.45	239.57
399.82	239.52
400.20	238.95
400.58	238.81
400.95	237.95
401.33	238.43
401.70	240.05
402.08	240.19
402.45	240.05
402.83	240.67
403.20	240.71
403.58	240.10
403.95	240.05
404.33	240.14
404.71	240.00
405.08	241.14
405.46	241.24
405.83	240.81
406.21	240.90
406.58	241.05
406.96	240.24
407.33	240.48
407.70	240.33
408.08	242.14
408.45	242.14
408.83	242.19
409.20	241.43
409.58	239.81
409.95	240.05
410.33	239.76
410.70	238.86
411.08	239.05
411.45	238.86
411.82	238.57
412.20	239.05
412.57	240.33
412.95	238.00
413.32	238.19
413.69	237.95
414.07	237.67
414.44	237.29
414.82	237.48
415.19	237.10
415.56	236.95
415.94	235.43
416.31	235.81
416.68	235.81
417.06	236.14
417.43	237.00
417.81	237.00
418.18	237.38
418.55	237.52
418.93	237.33
419.30	237.48
419.67	237.48
420.04	237.38
420.42	236.76
420.79	239.62
421.16	239.57
421.54	241.19
421.91	241.67
422.28	241.95
422.66	242.14
423.03	244.05
423.40	244.43
423.77	244.48
424.15	243.90
424.52	244.19
424.89	244.48
425.26	243.81
425.64	243.62
426.01	243.48
426.38	243.43
426.75	244.48
427.13	244.71
427.50	244.81
427.87	244.67
428.24	243.95
428.61	241.24
428.99	242.81
429.36	241.24
429.73	241.76
430.10	243.33
430.47	244.81
430.85	244.62
431.22	246.24
431.59	250.14
431.96	252.33
432.33	253.81
432.70	255.57
433.08	257.14
433.45	258.76
433.82	259.38
434.19	260.48
434.56	260.86
434.93	260.95
435.30	261.24
435.68	261.05
436.05	261.52
436.42	261.62
436.79	261.67
437.16	262.19
437.53	261.71
437.90	260.52
438.27	259.33
438.64	257.71
439.01	256.71
439.38	253.19
439.75	251.95
440.13	250.33
440.50	248.81
440.87	247.57
441.24	245.95
441.61	245.52
441.98	244.48
442.35	243.43
442.72	243.76
443.09	245.10
443.46	245.48
443.83	245.67
444.20	246.05
444.57	244.90
444.94	244.90
445.31	245.19
445.68	248.71
446.05	248.90
446.42	249.33
446.79	249.95
447.16	249.76
447.53	250.29
447.90	250.38
448.27	250.00
448.64	250.38
449.01	250.86
449.37	251.24
449.74	251.81
450.11	254.95
450.48	254.24
450.85	252.67
451.22	252.43
451.59	252.57
451.96	252.48
452.33	252.57
452.70	252.62
453.07	252.14
453.43	249.05
453.80	248.90
454.17	249.10
454.54	248.33
454.91	248.43
455.28	247.43
455.65	247.10
456.02	251.90
456.38	251.33
456.75	251.19
457.12	250.62
457.49	250.24
457.86	247.43
458.23	248.19
458.59	248.71
458.96	249.00
459.33	248.57
459.70	249.05
460.07	249.00
460.43	248.90
460.80	249.90
461.17	249.43
461.54	249.90
461.91	249.95
462.27	249.71
462.64	249.52
463.01	250.19
463.38	251.57
463.74	246.76
464.11	246.95
464.48	247.48
464.85	247.62
465.21	248.62
465.58	249.00
465.95	248.76
466.32	249.00
466.68	248.67
467.05	249.05
467.42	248.95
467.78	249.05
468.15	249.43
468.52	249.67
468.88	249.62
469.25	249.10
469.62	249.52
469.98	249.76
470.35	250.00
470.72	249.76
471.08	248.38
471.45	248.90
471.82	249.43
472.18	249.24
472.55	249.43
472.92	248.52
473.28	248.05
473.65	247.95
474.02	247.57
474.38	248.19
474.75	248.19
475.11	247.90
475.48	247.95
475.85	247.38
476.21	247.00
476.58	247.71
476.94	247.86
477.31	247.48
477.67	247.81
478.04	247.95
478.41	248.33
478.77	251.38
479.14	251.52
479.50	251.76
479.87	252.29
480.23	253.19
480.60	254.43
480.96	255.86
481.33	258.00
481.69	259.52
482.06	261.24
482.42	263.24
482.79	265.76
483.15	268.05
483.52	270.43
483.88	272.00
484.25	273.81
484.61	275.81
484.98	278.05
485.34	280.48
485.71	282.76
486.07	284.00
486.44	283.38
486.80	284.86
487.17	286.10
487.53	287.90
487.90	289.10
488.26	290.81
488.62	292.05
488.99	291.48
489.35	291.71
489.72	291.00
490.08	290.48
490.44	289.48
490.81	288.62
491.17	287.90
491.54	287.24
491.90	287.10
492.26	285.95
492.63	284.52
492.99	282.67
493.36	281.38
493.72	280.62
494.08	279.62
494.45	278.52
494.81	277.43
495.17	276.00
495.54	275.33
495.90	272.95
496.26	271.67
496.63	270.86
496.99	269.38
497.35	268.33
497.72	267.38
498.08	266.38
498.44	265.33
498.80	264.67
499.17	263.43
499.53	261.57
499.89	260.90
500.26	260.29
500.62	260.00
500.98	259.76
501.34	259.10
501.71	258.86
502.07	258.00
502.43	257.10
502.79	255.86
503.16	254.52
503.52	254.05
503.88	252.62
504.24	252.14
504.60	251.95
504.97	252.24
505.33	251.52
505.69	251.95
506.05	251.67
506.41	251.14
506.78	250.81
507.14	250.29
507.50	250.14
507.86	249.62
508.22	249.29
508.59	248.14
508.95	248.10
509.31	248.57
509.67	248.57
510.03	248.48
510.39	248.67
510.75	248.71
511.12	248.71
511.48	248.86
511.84	248.62
512.20	248.33
512.56	247.62
512.92	248.10
513.28	247.57
513.64	247.33
514.00	247.24
514.37	247.48
514.73	247.81
515.09	248.05
515.45	248.29
515.81	247.71
516.17	247.86
516.53	247.43
516.89	245.90
517.25	245.95
517.61	246.57
517.97	246.33
518.33	246.43
518.69	246.81
519.05	247.33
519.41	247.76
519.77	249.10
520.13	249.10
520.49	248.57
520.85	248.52
521.21	249.81
521.57	249.90
521.93	249.95
522.29	250.29
522.65	249.71
523.01	249.95
523.37	250.00
523.73	250.29
524.09	250.62
524.45	250.67
524.81	250.38
525.17	250.38
525.53	250.76
525.89	250.38
526.25	250.33
526.61	249.95
526.97	249.19
527.33	248.38
527.68	250.81
528.04	251.43
528.40	251.19
528.76	250.43
529.12	250.52
529.48	250.86
529.84	250.29
530.20	250.86
530.56	251.29
530.91	252.05
531.27	251.95
531.63	251.86
531.99	252.24
532.35	252.90
532.71	252.86
533.07	253.14
533.42	256.81
533.78	257.33
534.14	258.52
534.50	260.62
534.86	262.81
535.21	262.90
535.57	264.95
535.93	266.95
536.29	271.76
536.65	276.33
537.00	281.86
537.36	288.71
537.72	296.48
538.08	305.52
538.44	315.05
538.79	326.33
539.15	337.19
539.51	349.24
539.87	361.14
540.22	373.29
540.58	385.76
540.94	396.76
541.29	410.14
541.65	422.90
542.01	435.19
542.37	446.19
542.72	454.57
543.08	461.71
543.44	468.43
543.79	471.10
544.15	474.00
544.51	475.24
544.87	475.14
545.22	473.00
545.58	468.52
545.94	462.76
546.29	456.19
546.65	448.95
547.01	440.43
547.36	431.43
547.72	422.10
548.07	412.52
548.43	401.10
548.79	389.62
549.14	378.00
549.50	366.71
549.86	354.95
550.21	346.52
550.57	338.86
550.92	331.38
551.28	325.71
551.64	319.62
551.99	313.81
552.35	308.24
552.70	303.00
553.06	298.86
553.41	294.95
553.77	292.10
554.13	289.14
554.48	286.67
554.84	284.29
555.19	281.71
555.55	280.81
555.90	278.62
556.26	276.33
556.61	274.19
556.97	271.76
557.32	270.38
557.68	268.38
558.03	267.00
558.39	266.10
558.74	264.43
559.10	263.19
559.45	262.48
559.81	261.95
560.16	261.38
560.52	260.71
560.87	261.10
561.23	260.05
561.58	261.48
561.94	260.52
562.29	260.14
562.64	260.24
563.00	258.24
563.35	258.14
563.71	258.38
564.06	258.57
564.42	258.71
564.77	258.67
565.12	259.43
565.48	261.38
565.83	261.81
566.19	261.90
566.54	261.95
566.89	261.67
567.25	262.29
567.60	263.86
567.96	266.38
568.31	267.86
568.66	269.14
569.02	267.71
569.37	268.19
569.72	268.67
570.08	268.81
570.43	269.29
570.78	269.19
571.14	269.14
571.49	270.10
571.84	271.29
572.20	272.76
572.55	273.38
572.90	272.33
573.26	273.19
573.61	274.14
573.96	275.71
574.31	277.90
574.67	278.76
575.02	279.10
575.37	278.95
575.72	279.14
576.08	279.86
576.43	281.48
576.78	283.29
577.13	284.71
577.49	286.62
577.84	288.81
578.19	291.19
578.54	294.05
578.90	295.95
579.25	297.90
579.60	300.10
579.95	301.81
580.30	304.24
580.66	306.19
581.01	308.14
581.36	309.43
581.71	310.43
582.06	313.05
582.42	315.19
582.77	316.29
583.12	318.24
583.47	319.76
583.82	321.48
584.17	323.10
584.53	324.81
584.88	325.67
585.23	327.05
585.58	327.38
585.93	327.24
586.28	327.48
586.63	327.19
586.98	326.90
587.34	327.33
587.69	326.29
588.04	325.62
588.39	325.24
588.74	324.52
589.09	324.76
589.44	322.71
589.79	321.00
590.14	319.62
590.49	317.52
590.84	315.38
591.19	313.05
591.54	310.90
591.89	308.81
592.25	309.29
592.60	306.52
592.95	305.00
593.30	303.29
593.65	301.76
594.00	300.05
594.35	304.76
594.70	302.29
595.05	301.62
595.40	300.38
595.75	298.81
596.10	297.95
596.45	296.24
596.80	295.05
597.15	294.00
597.50	292.76
597.85	292.62
598.19	291.57
598.54	291.14
598.89	290.10
599.24	289.43
599.59	286.24
599.94	285.48
600.29	284.90
600.64	284.33
600.99	284.29
601.34	284.33
601.69	277.00
602.04	276.48
602.39	275.05
602.74	275.05
603.08	274.76
603.43	275.14
603.78	274.90
604.13	275.48
604.48	275.76
604.83	277.38
605.18	278.38
605.53	282.10
605.87	287.24
606.22	295.38
606.57	304.95
606.92	315.71
607.27	327.57
607.62	338.62
607.96	350.19
608.31	359.19
608.66	367.81
609.01	376.48
609.36	384.57
609.70	392.86
610.05	399.62
610.40	406.19
610.75	411.76
611.10	417.43
611.44	421.76
611.79	425.52
612.14	427.81
612.49	429.00
612.83	428.33
613.18	425.33
613.53	419.14
613.88	411.29
614.22	402.19
614.57	392.29
614.92	382.62
615.27	373.05
615.61	364.57
615.96	357.33
616.31	349.90
616.65	343.90
617.00	337.43
617.35	331.33
617.70	325.67
618.04	320.38
618.39	315.19
618.74	311.43
619.08	307.95
619.43	304.90
619.78	302.43
620.12	300.38
620.47	299.10
620.82	297.57
621.16	296.05
621.51	296.19
621.85	294.62
622.20	293.81
622.55	292.05
622.89	290.62
623.24	289.62
623.59	288.57
623.93	287.29
624.28	286.33
624.62	288.19
624.97	289.05
625.32	288.38
625.66	287.76
626.01	287.10
626.35	287.14
626.70	287.00
627.04	287.29
627.39	286.90
627.73	287.43
628.08	287.38
628.43	286.76
628.77	285.10
629.12	284.48
629.46	284.10
629.81	283.76
630.15	283.19
630.50	282.05
630.84	281.38
631.19	280.57
631.53	279.29
631.88	275.05
632.22	272.43
632.57	271.57
632.91	270.62
633.26	269.38
633.60	267.90
633.95	266.14
634.29	263.95
634.64	262.52
634.98	260.00
635.32	259.05
635.67	257.95
636.01	256.81
636.36	255.86
636.70	255.00
637.05	253.95
637.39	253.05
637.73	252.48
638.08	252.29
638.42	251.33
638.77	251.24
639.11	251.24
639.45	250.71
639.80	249.95
640.14	249.33
640.49	248.90
640.83	248.19
641.17	248.29
641.52	248.29
641.86	248.29
642.20	249.24
642.55	248.57
642.89	248.71
643.23	249.05
643.58	250.10
643.92	249.33
644.26	249.52
644.61	250.24
644.95	250.57
645.29	250.29
645.64	251.38
645.98	251.19
646.32	252.00
646.66	251.86
647.01	251.95
647.35	252.48
647.69	253.10
648.04	253.76
648.38	253.86
648.72	253.81
649.06	253.48
649.41	252.71
649.75	252.62
650.09	253.00
650.43	252.52
650.78	251.67
651.12	251.81
651.46	251.81
651.80	251.29
652.14	250.52
652.49	251.10
652.83	250.10
653.17	250.10
653.51	249.05
653.85	249.19
654.20	249.24
654.54	248.24
654.88	247.24
655.22	246.10
655.56	245.33
655.90	245.19
656.25	245.19
656.59	244.86
656.93	244.95
657.27	245.24
657.61	245.24
657.95	245.52
658.29	245.67
658.64	246.19
658.98	246.24
659.32	246.10
659.66	245.81
660.00	246.19
660.34	246.24
660.68	246.29
661.02	246.52
661.36	245.86
661.70	246.05
662.05	246.24
662.39	247.38
662.73	248.57
663.07	249.81
663.41	249.86
663.75	249.67
664.09	250.00
664.43	249.24
664.77	249.29
665.11	248.86
665.45	248.71
665.79	248.76
666.13	248.76
666.47	249.05
666.81	248.76
667.15	248.05
667.49	247.95
667.83	249.00
668.17	248.48
668.51	248.62
668.85	249.29
669.19	250.24
669.53	249.29
669.87	248.48
670.21	247.38
670.55	247.00
670.89	248.38
671.23	247.90
671.57	248.14
671.91	248.38
672.25	248.71
672.58	249.38
672.92	248.33
673.26	248.43
673.60	248.48
673.94	248.33
674.28	248.90
674.62	249.24
674.96	248.33
675.30	248.67
675.64	248.67
675.97	247.81
676.31	246.95
676.65	247.00
676.99	247.71
677.33	247.62
677.67	247.90
678.01	246.29
678.34	246.33
678.68	246.29
679.02	245.71
679.36	245.14
679.70	244.52
680.04	244.86
680.37	244.90
680.71	244.57
681.05	244.86
681.39	244.43
681.73	244.00
682.06	243.95
682.40	243.67
682.74	243.95
683.08	245.24
683.42	245.10
683.75	245.71
684.09	245.24
684.43	245.19
684.77	245.05
685.10	245.48
685.44	245.67
685.78	245.43
686.12	245.62
686.45	245.52
686.79	245.00
687.13	245.29
687.46	244.90
687.80	245.24
688.14	244.71
688.48	244.86
688.81	245.29
689.15	246.05
689.49	245.76
689.82	245.95
690.16	244.81
690.50	244.67
690.83	244.33
691.17	243.52
691.51	243.71
691.84	244.19
692.18	243.95
692.52	243.76
692.85	244.24
693.19	245.05
693.52	245.38
693.86	245.29
694.20	245.00
694.53	245.33
694.87	245.10
695.21	244.95
695.54	244.95
695.88	244.43
696.21	243.24
696.55	243.52
696.88	242.81
697.22	242.38
697.56	242.62
697.89	242.29
698.23	242.76
698.56	242.24
698.90	242.14
699.23	241.52
699.57	241.48
699.90	241.05
700.24	240.57
700.58	240.90
700.91	241.81
701.25	243.81
701.58	244.90
701.92	245.95
702.25	246.86
702.59	247.43
702.92	248.14
703.26	249.38
703.59	250.48
703.93	253.67
704.26	255.10
704.60	255.95
704.93	256.76
705.26	257.05
705.60	258.52
705.93	258.38
706.27	260.10
706.60	261.43
706.94	262.95
707.27	263.29
707.61	263.67
707.94	264.05
708.27	262.67
708.61	261.76
708.94	261.38
709.28	261.29
709.61	260.67
709.94	260.52
710.28	260.00
710.61	259.10
710.95	256.14
711.28	257.14
711.61	256.48
711.95	256.38
712.28	255.86
712.61	254.90
712.95	256.00
713.28	256.43
713.61	255.19
713.95	253.67
714.28	252.90
714.61	251.90
714.95	250.95
715.28	250.10
715.61	249.48
715.95	249.19
716.28	248.38
716.61	248.62
716.95	247.81
717.28	247.24
717.61	246.95
717.94	246.76
718.28	244.48
718.61	244.14
718.94	243.48
719.27	243.29
719.61	243.14
719.94	241.86
720.27	240.33
720.60	239.95
720.94	240.05
721.27	240.00
721.60	240.24
721.93	239.90
722.27	240.67
722.60	241.14
722.93	240.81
723.26	240.95
723.59	240.38
723.93	240.81
724.26	241.29
724.59	241.14
724.92	241.05
725.25	242.00
725.59	241.71
725.92	241.90
726.25	242.14
726.58	242.10
726.91	242.05
727.24	242.33
727.57	242.52
727.91	242.05
728.24	242.62
728.57	242.38
728.90	242.76
729.23	241.67
729.56	242.86
729.89	242.71
730.22	242.48
730.55	242.29
730.89	242.19
731.22	241.90
731.55	241.90
731.88	241.90
732.21	241.10
732.54	241.14
732.87	240.81
733.20	240.62
733.53	240.52
733.86	240.81
734.19	240.43
734.52	240.95
734.85	242.76
735.18	242.00
735.51	242.86
735.84	242.67
736.17	243.24
736.50	241.76
736.83	244.29
737.16	244.29
737.49	244.57
737.82	244.05
738.15	244.43
738.48	244.24
738.81	244.43
739.14	244.48
739.47	244.24
739.80	244.29
740.13	244.81
740.46	244.52
740.79	244.00
741.12	243.86
741.45	243.19
741.78	241.67
742.11	242.71
742.44	242.00
742.77	242.48
743.10	242.57
743.43	242.24
743.75	239.90
744.08	243.19
744.41	242.90
744.74	242.95
745.07	242.10
745.40	242.33
745.73	243.14
746.06	243.19
746.39	243.43
746.71	243.38
747.04	242.62
747.37	242.38
747.70	242.90
748.03	243.33
748.36	243.62
748.68	243.48
749.01	242.19
749.34	242.14
749.67	241.90
750.00	242.05
750.33	243.90
750.65	243.95
750.98	240.71
751.31	241.05
751.64	241.14
751.97	242.76
752.29	242.71
752.62	241.67
752.95	241.48
753.28	241.10
753.60	240.86
753.93	241.52
754.26	241.67
754.59	241.05
754.91	240.62
755.24	240.29
755.57	240.38
755.90	240.52
756.22	240.14
756.55	239.76
756.88	239.05
757.20	237.86
757.53	237.19
757.86	237.29
758.19	237.48
758.51	237.24
758.84	235.81
759.17	235.57
759.49	235.76
759.82	237.00
760.15	237.19
760.47	237.29
760.80	236.48
761.13	237.29
761.45	237.19
761.78	237.29
762.11	237.43
762.43	237.05
762.76	237.05
763.08	237.38
763.41	237.81
763.74	237.86
764.06	237.48
764.39	237.81
764.71	237.67
765.04	237.24
765.37	236.90
765.69	236.86
766.02	237.00
766.34	236.76
766.67	235.62
767.00	236.14
767.32	237.24
767.65	238.76
767.97	238.33
768.30	238.48
768.62	238.43
768.95	238.14
769.27	238.14
769.60	238.62
769.92	238.67
770.25	238.29
770.57	238.14
770.90	237.90
771.22	237.81
771.55	237.67
771.87	237.71
772.20	238.24
772.52	240.57
772.85	243.33
773.17	243.48
773.50	243.43
773.82	243.24
774.15	242.29
774.47	240.95
774.80	240.76
775.12	240.81
775.45	240.90
775.77	241.00
776.09	241.24
776.42	241.05
776.74	241.62
777.07	241.43
777.39	241.57
777.72	241.48
778.04	241.71
778.36	241.81
778.69	241.81
779.01	241.67
779.33	239.52
779.66	236.62
779.98	236.67
780.31	236.86
780.63	237.76
780.95	238.38
781.28	238.52
781.60	238.10
781.92	237.90
782.25	237.52
782.57	237.43
782.89	237.24
783.22	237.00
783.54	236.24
783.86	236.57
784.19	236.52
784.51	237.43
784.83	237.19
785.16	237.19
785.48	237.19
785.80	237.52
786.12	237.67
786.45	237.71
786.77	237.48
787.09	237.43
787.42	236.24
787.74	235.95
788.06	235.95
788.38	235.86
788.71	235.86
789.03	235.95
789.35	236.48
789.67	236.38
789.99	236.67
790.32	236.48
790.64	236.71
790.96	238.90
791.28	238.00
791.61	237.71
791.93	237.76
792.25	237.90
792.57	239.81
792.89	239.43
793.21	239.76
793.54	239.81
793.86	239.57
794.18	240.00
794.50	239.67
794.82	239.76
795.14	240.71
795.47	241.19
795.79	241.57
796.11	241.14
796.43	241.24
796.75	241.29
797.07	241.38
797.39	241.33
797.71	239.19
798.04	239.38
798.36	239.52
798.68	239.38
799.00	239.57
799.32	237.86
799.64	238.48
799.96	238.29
800.28	238.71
800.60	238.95
800.92	238.95
801.24	239.00
801.56	239.33
801.89	238.62
802.21	238.71
802.53	238.33
802.85	238.90
803.17	240.14
803.49	239.67
803.81	239.67
804.13	239.48
804.45	239.57
804.77	239.67
805.09	239.62
805.41	239.76
805.73	239.38
806.05	239.00
806.37	238.62
806.69	238.81
807.01	238.43
807.33	238.43
807.65	237.81
807.97	238.57
808.28	237.95
808.60	238.33
808.92	238.38
809.24	240.10
809.56	239.81
809.88	238.81
810.20	239.14
810.52	239.67
810.84	239.29
811.16	239.00
811.48	238.90
811.80	239.86
812.12	239.57
812.43	240.05
812.75	240.38
813.07	240.43
813.39	240.24
813.71	240.29
814.03	239.95
814.35	240.24
814.67	239.29
814.98	239.33
815.30	239.14
815.62	238.48
815.94	236.86
816.26	237.95
816.58	237.48
816.89	237.76
817.21	237.48
817.53	237.76
817.85	238.10
818.17	238.05
818.48	237.19
818.80	237.90
819.12	237.62
819.44	237.33
819.76	237.00
820.07	237.29
820.39	237.10
820.71	237.14
821.03	237.00
821.34	236.81
821.66	237.10
821.98	237.29
822.30	237.19
822.61	238.38
822.93	237.05
823.25	237.43
823.57	237.05
823.88	237.38
824.20	237.52
824.52	238.00
824.83	237.95
825.15	237.90
825.47	237.95
825.79	237.95
826.10	237.76
826.42	237.76
826.74	238.05
827.05	238.24
827.37	238.52
827.69	238.57
828.00	239.10
828.32	239.10
828.64	238.95
828.95	240.62
829.27	240.05
829.58	240.05
829.90	240.33
830.22	240.57
830.53	239.76
830.85	239.33
831.17	238.33
831.48	238.67
831.80	238.71
832.11	238.43
832.43	238.29
832.75	238.14
833.06	239.67
833.38	238.71
833.69	238.43
834.01	238.67
834.32	238.57
834.64	238.19
834.96	238.24
835.27	238.48
835.59	237.71
835.90	237.48
836.22	237.48
836.53	236.86
836.85	236.76
837.16	239.43
837.48	239.86
837.79	240.95
838.11	240.52
838.42	240.71
838.74	240.90
839.05	241.00
839.37	240.95
839.68	239.24
840.00	239.62
840.31	240.33
840.63	240.10
840.94	239.95
841.26	240.10
841.57	240.24
841.88	240.33
842.20	239.81
842.51	239.57
842.83	239.71
843.14	242.10
843.46	241.86
843.77	240.67
844.08	240.19
844.40	239.43
844.71	239.76
845.03	239.81
845.34	239.57
845.65	239.76
845.97	239.90
846.28	240.10
846.60	240.19
846.91	239.90
847.22	240.14
847.54	241.05
847.85	241.33
848.16	241.14
848.48	240.81
848.79	241.86
849.10	242.33
849.42	242.62
849.73	240.57
850.04	240.67
850.36	240.14
850.67	241.05
850.98	241.19
851.30	241.29
851.61	241.19
851.92	241.24
852.23	241.71
852.55	242.24
852.86	242.71
853.17	243.00
853.49	243.52
853.80	244.00
854.11	243.76
854.42	243.95
854.74	243.67
855.05	243.76
855.36	242.81
855.67	242.81
855.99	242.86
856.30	245.52
856.61	245.71
856.92	245.76
857.23	245.38
857.55	245.19
857.86	245.10
858.17	245.57
858.48	245.38
858.79	245.24
859.11	245.14
859.42	244.95
859.73	244.52
860.04	244.29
860.35	243.38
860.66	242.86
860.98	242.71
861.29	243.19
861.60	242.76
861.91	243.19
862.22	242.76
862.53	242.38
862.84	239.48
863.16	240.05
863.47	239.62
863.78	239.76
864.09	240.14
864.40	240.29
864.71	240.14
865.02	240.29
865.33	239.48
865.64	239.24
865.95	239.33
866.27	241.00
866.58	240.86
866.89	241.05
867.20	241.10
867.51	240.19
867.82	239.95
868.13	241.24
868.44	240.67
868.75	241.24
869.06	241.29
869.37	241.81
869.68	240.90
869.99	241.14
870.30	241.14
870.61	241.10
870.92	240.81
871.23	240.62
871.54	240.95
871.85	241.62
872.16	241.90
872.47	241.57
872.78	239.95
873.09	240.00
873.40	239.95
873.71	239.76
874.02	240.57
874.33	240.52
874.64	239.29
874.95	239.90
875.26	239.14
875.56	238.95
875.87	238.52
876.18	238.67
876.49	241.14
876.80	240.95
877.11	240.52
877.42	240.71
877.73	240.67
878.04	240.38
878.35	240.57
878.66	240.29
878.96	240.10
879.27	240.24
879.58	240.00
879.89	239.95
880.20	241.05
880.51	240.67
880.82	240.29
881.12	240.62
881.43	239.81
881.74	239.57
882.05	239.52
882.36	239.76
882.67	239.90
882.97	237.05
883.28	236.62
883.59	236.71
883.90	237.05
884.21	237.38
884.51	237.33
884.82	236.43
885.13	236.52
885.44	236.57
885.74	236.43
886.05	236.43
886.36	236.33
886.67	235.52
886.98	236.81
887.28	237.52
887.59	237.38
887.90	237.52
888.20	237.62
888.51	238.24
888.82	237.86
889.13	238.29
889.43	240.19
889.74	240.52
890.05	240.57
890.35	239.76
890.66	239.05
890.97	238.81
891.28	238.71
891.58	239.14
891.89	239.14
892.20	239.19
892.50	238.95
892.81	238.81
893.12	238.38
893.42	237.48
893.73	237.29
894.04	237.57
894.34	237.86
894.65	237.81
894.95	237.67
895.26	237.86
895.57	238.52
895.87	236.57
896.18	236.81
896.48	237.14
896.79	237.57
897.10	238.43
897.40	238.48
897.71	239.14
898.01	238.57
898.32	238.76
898.63	238.57
898.93	238.67
899.24	238.67
899.54	238.76
899.85	238.48
900.15	238.62
900.46	238.76
900.76	239.19
901.07	239.10
901.38	238.71
901.68	239.10
901.99	237.90
902.29	238.24
902.60	238.14
902.90	237.67
903.21	237.67
903.51	237.24
903.82	237.81
904.12	237.52
904.43	237.62
904.73	237.67
905.03	238.05
905.34	240.76
905.64	240.57
905.95	240.67
906.25	240.67
906.56	240.38
906.86	240.24
907.17	239.52
907.47	239.71
907.77	239.38
908.08	238.52
908.38	238.86
908.69	238.81
908.99	239.10
909.30	239.29
909.60	239.05
909.90	239.24
910.21	238.71
910.51	238.48
910.81	238.95
911.12	239.19
911.42	238.86
911.73	236.33
912.03	236.86
912.33	237.52
912.64	237.71
912.94	237.29
913.24	236.76
913.55	236.86
913.85	236.86
914.15	237.48
914.46	238.00
914.76	237.71
915.06	237.33
915.37	236.95
915.67	236.57
915.97	236.62
916.27	236.19
916.58	236.14
916.88	236.29
917.18	235.90
917.49	237.38
917.79	237.00
918.09	237.38
918.39	237.95
918.70	238.00
919.00	237.71
919.30	239.29
919.60	239.48
919.91	239.33
920.21	239.33
920.51	238.86
920.81	239.00
921.12	239.29
921.42	239.33
921.72	239.14
922.02	239.81
922.32	239.90
922.63	240.14
922.93	241.33
923.23	241.62
923.53	241.43
923.83	239.76
924.13	240.76
924.44	240.43
924.74	240.90
925.04	241.05
925.34	241.33
925.64	240.14
925.94	240.00
926.24	241.33
926.55	241.48
926.85	242.14
927.15	242.00
927.45	242.14
927.75	242.05
928.05	242.24
928.35	241.76
928.65	242.67
928.95	242.62
929.26	241.76
929.56	241.95
929.86	242.29
930.16	242.33
930.46	241.71
930.76	241.90
931.06	240.62
931.36	239.86
931.66	239.81
931.96	239.90
932.26	240.05
932.56	239.05
932.86	238.90
933.16	238.86
933.46	238.71
933.76	238.33
934.06	239.05
934.36	240.14
934.66	240.00
934.96	239.62
935.26	239.71
935.56	240.14
935.86	239.43
936.16	239.10
936.46	239.19
936.76	239.24
937.06	238.90
937.36	239.14
937.66	239.57
937.96	239.76
938.26	239.43
938.56	239.29
938.86	239.24
939.16	239.67
939.46	239.81
939.76	239.76
940.06	239.57
940.35	239.10
940.65	237.76
940.95	237.95
941.25	237.24
941.55	237.05
941.85	236.81
942.15	237.71
942.45	238.86
942.75	238.33
943.04	238.33
943.34	238.71
943.64	238.43
943.94	237.95
944.24	237.90
944.54	237.90
944.84	238.29
945.13	237.86
945.43	237.62
945.73	237.33
946.03	237.38
946.33	237.14
946.62	236.86
946.92	237.00
947.22	237.62
947.52	237.81
947.82	237.90
948.11	237.48
948.41	236.71
948.71	235.33
949.01	235.71
949.31	235.90
949.60	235.71
949.90	236.19
950.20	236.14
950.50	235.86
950.79	235.76
951.09	235.67
951.39	236.00
951.69	235.86
951.98	236.62
952.28	236.86
952.58	237.14
952.87	237.05
953.17	237.48
953.47	236.95
953.76	236.95
954.06	236.52
954.36	236.33
954.66	236.33
954.95	237.19
955.25	237.29
955.55	237.29
955.84	236.86
956.14	236.86
956.44	237.00
956.73	236.81
957.03	237.33
957.32	237.62
957.62	237.29
957.92	238.00
958.21	237.19
958.51	239.67
958.81	239.86
959.10	240.38
959.40	240.52
959.69	240.62
959.99	241.19
960.29	241.19
960.58	241.14
960.88	242.05
961.17	241.62
961.47	241.81
961.76	241.62
962.06	242.29
962.36	241.95
962.65	241.90
962.95	242.33
963.24	242.00
963.54	241.67
963.83	242.05
964.13	241.62
964.42	241.10
964.72	239.00
965.01	238.90
965.31	238.62
965.60	238.10
965.90	239.43
966.19	238.71
966.49	238.95
966.78	238.81
967.08	238.43
967.37	238.38
967.67	237.90
967.96	238.19
968.26	237.71
968.55	238.33
968.85	238.48
969.14	237.90
969.43	237.67
969.73	237.81
970.02	237.29
970.32	237.29
970.61	237.43
970.91	237.05
971.20	236.48
971.49	236.67
971.79	237.00
972.08	235.67
972.38	235.90
972.67	236.05
972.96	236.71
973.26	236.57
973.55	237.57
973.85	237.48
974.14	237.24
974.43	237.71
974.73	237.05
975.02	236.95
975.31	237.43
975.61	237.67
975.90	237.43
976.19	237.67
976.49	237.76
976.78	238.29
977.07	238.38
977.37	239.10
977.66	239.38
977.95	239.33
978.24	239.62
978.54	239.95
978.83	239.62
979.12	239.29
979.42	239.33
979.71	238.76
980.00	238.81
980.29	238.86
980.59	238.52
980.88	239.38
981.17	239.52
981.46	239.62
981.76	239.71
982.05	240.76
982.34	240.81
982.63	241.05
982.93	240.86
983.22	241.43
983.51	241.33
983.80	241.38
984.09	241.52
984.39	241.14
984.68	240.95
984.97	241.52
985.26	241.62
985.55	241.81
985.85	241.57
986.14	242.10
986.43	242.62
986.72	242.48
987.01	241.62
987.30	241.48
987.59	241.33
987.89	241.43
988.18	240.52
988.47	240.71
988.76	240.29
989.05	240.19
989.34	239.67
989.63	240.38
989.92	240.00
990.22	239.81
990.51	239.52
990.80	239.71
991.09	239.71
991.38	239.67
991.67	239.38
991.96	239.00
992.25	239.00
992.54	238.57
992.83	238.76
993.12	238.90
993.41	239.10
993.70	240.10
993.99	240.43
994.28	240.76
994.58	241.14
994.87	240.90
995.16	240.95
995.45	240.76
995.74	239.62
996.03	240.10
996.32	240.10
996.61	240.86
996.90	240.43
997.19	240.10
997.48	240.10
997.77	239.62
998.06	239.76
998.34	239.33
998.63	239.14
998.92	239.05
999.21	239.10
999.50	239.14
999.79	238.38
1000.08	238.29
1000.37	238.05
1000.66	237.48
1000.95	238.48
1001.24	238.33
1001.53	238.52
1001.82	238.52
1002.11	237.95
1002.40	238.38
1002.68	239.10
1002.97	240.95
1003.26	240.62
1003.55	240.57
1003.84	240.67
1004.13	241.29
1004.42	241.33
1004.71	241.57
1004.99	241.38
1005.28	241.76
1005.57	241.81
1005.86	241.14
1006.15	240.81
1006.44	240.67
1006.72	240.86
1007.01	239.86
1007.30	239.95
1007.59	239.76
1007.88	239.81
1008.17	239.90
1008.45	238.90
1008.74	237.76
1009.03	236.62
1009.32	237.00
1009.60	236.90
1009.89	237.05
1010.18	236.24
1010.47	236.00
1010.76	235.57
1011.04	235.33
1011.33	235.14
1011.62	235.10
1011.91	235.33
1012.19	235.57
1012.48	235.57
1012.77	235.57
1013.05	236.95
1013.34	236.81
1013.63	236.38
1013.92	236.29
1014.20	236.14
1014.49	236.90
1014.78	237.05
1015.06	236.14
1015.35	236.05
1015.64	236.43
1015.92	236.86
1016.21	236.95
1016.50	237.14
1016.78	237.71
1017.07	238.10
1017.36	237.76
1017.64	237.29
1017.93	237.76
1018.22	237.62
1018.50	237.62
1018.79	237.29
1019.08	236.10
1019.36	236.52
1019.65	236.67
1019.93	237.71
1020.22	238.33
1020.51	239.38
1020.79	239.00
1021.08	237.00
1021.36	236.00
1021.65	232.00
1021.94	237.00
1022.22	242.00
1022.51	232.00
1022.79	250.00
1023.08	247.00
1023.36	268.00
1023.65	231.00
>>>>>End Processed Spectral Data<<<<<
