SpectraSuite Data File
++++++++++++++++++++++++++++++++++++
Date: Wed Nov 07 18:31:00 EST 2012
User: group
Dark Spectrum Present: No
Reference Spectrum Present: No
Number of Sampled Component Spectra: 1
Spectrometers: USB2E7196
Integration Time (usec): 1000000 (USB2E7196)
Spectra Averaged: 1 (USB2E7196)
Boxcar Smoothing: 10 (USB2E7196)
Correct for Electrical Dark: No (USB2E7196)
Strobe/Lamp Enabled: No (USB2E7196)
Correct for Detector Non-linearity: No (USB2E7196)
Correct for Stray Light: No (USB2E7196)
Number of Pixels in Processed Spectrum: 2048
>>>>>Begin Processed Spectral Data<<<<<
339.09	0.00
339.48	224.00
339.86	225.00
340.24	226.00
340.63	233.00
341.01	267.00
341.39	230.00
341.78	233.00
342.16	241.00
342.54	233.00
342.93	226.00
343.31	237.29
343.69	237.86
344.07	238.29
344.46	239.29
344.84	239.57
345.22	238.33
345.60	238.76
345.99	239.05
346.37	238.67
346.75	238.81
347.13	239.14
347.52	239.38
347.90	240.19
348.28	240.19
348.66	240.48
349.05	240.10
349.43	240.19
349.81	240.43
350.19	240.05
350.57	240.05
350.96	240.38
351.34	240.57
351.72	240.67
352.10	240.76
352.48	240.14
352.87	240.14
353.25	239.95
353.63	239.86
354.01	239.62
354.39	239.90
354.77	240.05
355.15	240.48
355.54	239.90
355.92	239.24
356.30	239.00
356.68	240.10
357.06	240.29
357.44	240.29
357.82	239.95
358.20	240.29
358.58	240.10
358.97	239.86
359.35	240.52
359.73	240.43
360.11	240.33
360.49	240.43
360.87	240.48
361.25	240.76
361.63	241.71
362.01	241.71
362.39	241.52
362.77	241.62
363.15	240.86
363.53	241.14
363.91	241.19
364.29	241.29
364.67	239.29
365.05	239.24
365.43	239.14
365.81	239.57
366.19	240.52
366.57	241.76
366.95	241.71
367.33	240.76
367.71	240.57
368.09	241.14
368.47	240.90
368.85	240.71
369.23	240.81
369.61	239.62
369.99	240.57
370.37	240.81
370.75	241.52
371.13	241.29
371.51	240.71
371.89	240.95
372.27	241.10
372.65	241.29
373.03	241.29
373.41	241.05
373.78	240.76
374.16	239.76
374.54	238.76
374.92	238.57
375.30	238.81
375.68	238.71
376.06	238.71
376.44	238.86
376.82	238.71
377.19	238.90
377.57	239.05
377.95	237.95
378.33	237.95
378.71	236.62
379.09	237.00
379.47	237.43
379.84	237.05
380.22	236.71
380.60	236.33
380.98	236.38
381.36	236.48
381.73	236.38
382.11	236.52
382.49	236.86
382.87	236.90
383.25	236.90
383.62	239.95
384.00	239.33
384.38	239.48
384.76	240.43
385.13	241.57
385.51	241.62
385.89	241.43
386.27	241.10
386.64	241.86
387.02	241.90
387.40	241.86
387.78	241.95
388.15	242.67
388.53	242.62
388.91	242.33
389.29	242.52
389.66	242.86
390.04	242.76
390.42	243.29
390.79	243.29
391.17	243.33
391.55	240.67
391.92	240.86
392.30	241.48
392.68	240.52
393.05	240.00
393.43	240.00
393.81	240.19
394.18	240.52
394.56	240.76
394.94	241.19
395.31	241.00
395.69	241.57
396.06	241.81
396.44	242.19
396.82	242.19
397.19	243.19
397.57	242.81
397.95	243.71
398.32	242.81
398.70	242.95
399.07	243.29
399.45	243.33
399.82	243.38
400.20	242.76
400.58	243.19
400.95	242.38
401.33	243.24
401.70	245.33
402.08	245.57
402.45	245.33
402.83	246.10
403.20	246.33
403.58	246.19
403.95	246.62
404.33	247.14
404.71	247.71
405.08	248.76
405.46	249.10
405.83	248.95
406.21	249.33
406.58	250.05
406.96	250.33
407.33	251.05
407.70	252.00
408.08	254.19
408.45	255.05
408.83	256.05
409.20	256.29
409.58	255.52
409.95	256.38
410.33	257.62
410.70	257.33
411.08	258.57
411.45	260.10
411.82	260.76
412.20	262.48
412.57	264.90
412.95	264.71
413.32	266.76
413.69	267.86
414.07	269.90
414.44	271.81
414.82	273.90
415.19	276.38
415.56	278.95
415.94	280.33
416.31	283.05
416.68	285.90
417.06	289.29
417.43	293.00
417.81	296.62
418.18	300.24
418.55	304.52
418.93	308.76
419.30	313.29
419.67	318.19
420.04	322.33
420.42	326.76
420.79	334.19
421.16	339.95
421.54	347.95
421.91	353.90
422.28	359.95
422.66	366.86
423.03	374.90
423.40	381.62
423.77	389.10
424.15	395.95
424.52	403.95
424.89	412.29
425.26	419.76
425.64	427.52
426.01	435.76
426.38	444.19
426.75	453.62
427.13	462.43
427.50	471.81
427.87	482.14
428.24	491.24
428.61	499.62
428.99	511.05
429.36	520.81
429.73	532.81
430.10	545.86
430.47	558.71
430.85	570.48
431.22	585.05
431.59	602.33
431.96	617.24
432.33	632.52
432.70	647.10
433.08	663.86
433.45	679.71
433.82	695.76
434.19	714.14
434.56	730.29
434.93	745.95
435.30	761.81
435.68	778.10
436.05	796.10
436.42	812.62
436.79	827.95
437.16	844.81
437.53	860.76
437.90	876.48
438.27	892.19
438.64	907.67
439.01	921.76
439.38	932.05
439.75	944.62
440.13	957.62
440.50	970.86
440.87	982.33
441.24	993.05
441.61	1004.86
441.98	1012.43
442.35	1023.33
442.72	1033.81
443.09	1045.14
443.46	1051.62
443.83	1054.57
444.20	1057.33
444.57	1061.76
444.94	1062.43
445.31	1064.57
445.68	1069.38
446.05	1068.33
446.42	1065.05
446.79	1062.24
447.16	1058.10
447.53	1054.81
447.90	1047.90
448.27	1040.38
448.64	1030.38
449.01	1023.95
449.37	1012.81
449.74	1001.14
450.11	989.24
450.48	975.00
450.85	958.95
451.22	945.95
451.59	934.48
451.96	922.00
452.33	905.81
452.70	892.14
453.07	875.67
453.43	855.00
453.80	839.43
454.17	824.38
454.54	808.19
454.91	793.00
455.28	776.76
455.65	762.10
456.02	752.14
456.38	739.57
456.75	724.05
457.12	711.48
457.49	699.29
457.86	685.48
458.23	675.95
458.59	664.38
458.96	653.24
459.33	642.57
459.70	633.29
460.07	625.90
460.43	616.95
460.80	609.14
461.17	601.48
461.54	593.38
461.91	586.05
462.27	579.38
462.64	572.29
463.01	566.29
463.38	561.19
463.74	550.29
464.11	544.48
464.48	539.81
464.85	533.19
465.21	530.05
465.58	525.48
465.95	518.81
466.32	514.57
466.68	509.43
467.05	504.86
467.42	499.95
467.78	494.67
468.15	490.29
468.52	486.81
468.88	482.52
469.25	478.76
469.62	476.38
469.98	472.90
470.35	470.29
470.72	467.19
471.08	463.00
471.45	460.52
471.82	458.24
472.18	454.00
472.55	452.10
472.92	448.29
473.28	445.67
473.65	443.19
474.02	441.38
474.38	440.29
474.75	438.62
475.11	436.86
475.48	435.29
475.85	433.62
476.21	431.48
476.58	430.67
476.94	430.05
477.31	428.38
477.67	427.67
478.04	426.86
478.41	426.67
478.77	429.00
479.14	428.38
479.50	428.14
479.87	429.48
480.23	430.29
480.60	430.86
480.96	431.52
481.33	433.62
481.69	434.71
482.06	436.29
482.42	438.33
482.79	440.86
483.15	443.14
483.52	446.10
483.88	448.76
484.25	451.10
484.61	453.10
484.98	455.81
485.34	459.38
485.71	462.52
486.07	464.67
486.44	464.48
486.80	467.43
487.17	469.67
487.53	473.00
487.90	475.29
488.26	479.29
488.62	481.71
488.99	483.38
489.35	485.24
489.72	486.29
490.08	487.38
490.44	488.52
490.81	490.43
491.17	491.24
491.54	492.76
491.90	494.86
492.26	496.52
492.63	498.00
492.99	498.48
493.36	500.38
493.72	502.57
494.08	504.52
494.45	506.76
494.81	509.29
495.17	511.29
495.54	513.90
495.90	514.71
496.26	518.57
496.63	521.81
496.99	524.62
497.35	528.05
497.72	531.76
498.08	535.14
498.44	538.67
498.80	542.67
499.17	545.95
499.53	548.76
499.89	552.62
500.26	556.43
500.62	560.86
500.98	565.33
501.34	569.71
501.71	575.14
502.07	579.57
502.43	583.95
502.79	588.00
503.16	591.76
503.52	596.62
503.88	599.76
504.24	604.86
504.60	609.71
504.97	615.19
505.33	619.52
505.69	625.48
506.05	630.38
506.41	635.00
506.78	640.33
507.14	645.48
507.50	651.00
507.86	656.90
508.22	661.86
508.59	666.33
508.95	671.10
509.31	676.67
509.67	681.52
510.03	686.43
510.39	691.43
510.75	697.10
511.12	702.19
511.48	707.86
511.84	711.86
512.20	717.29
512.56	722.00
512.92	727.38
513.28	731.05
513.64	735.14
514.00	740.43
514.37	745.14
514.73	749.67
515.09	754.29
515.45	757.86
515.81	762.19
516.17	766.10
516.53	769.90
516.89	772.10
517.25	776.24
517.61	780.62
517.97	784.00
518.33	787.05
518.69	791.33
519.05	794.81
519.41	798.33
519.77	802.81
520.13	805.76
520.49	808.14
520.85	811.10
521.21	815.62
521.57	818.57
521.93	820.19
522.29	823.00
522.65	824.33
523.01	827.19
523.37	828.90
523.73	831.24
524.09	833.57
524.45	835.86
524.81	837.43
525.17	838.67
525.53	840.62
525.89	842.05
526.25	843.52
526.61	844.43
526.97	846.24
527.33	846.48
527.68	850.10
528.04	852.10
528.40	853.90
528.76	853.67
529.12	854.29
529.48	856.52
529.84	857.76
530.20	859.95
530.56	861.24
530.91	863.81
531.27	865.29
531.63	867.05
531.99	868.52
532.35	869.48
532.71	871.05
533.07	873.29
533.42	878.14
533.78	878.95
534.14	881.67
534.50	883.67
534.86	886.71
535.21	887.14
535.57	889.81
535.93	892.43
536.29	898.19
536.65	903.52
537.00	909.10
537.36	916.24
537.72	924.48
538.08	935.24
538.44	945.24
538.79	957.67
539.15	968.52
539.51	980.81
539.87	993.81
540.22	1006.38
540.58	1019.57
540.94	1030.38
541.29	1045.19
541.65	1056.57
542.01	1069.10
542.37	1079.29
542.72	1088.48
543.08	1095.00
543.44	1101.05
543.79	1102.90
544.15	1105.71
544.51	1106.86
544.87	1106.43
545.22	1103.71
545.58	1096.86
545.94	1090.00
546.29	1081.00
546.65	1072.43
547.01	1062.14
547.36	1051.86
547.72	1041.05
548.07	1028.33
548.43	1015.48
548.79	1001.19
549.14	988.71
549.50	976.05
549.86	963.43
550.21	952.67
550.57	943.76
550.92	934.76
551.28	928.00
551.64	920.43
551.99	913.24
552.35	905.90
552.70	899.33
553.06	894.14
553.41	888.19
553.77	884.57
554.13	880.52
554.48	876.67
554.84	872.33
555.19	868.38
555.55	866.24
555.90	862.90
556.26	859.29
556.61	856.24
556.97	851.62
557.32	848.24
557.68	844.67
558.03	842.05
558.39	839.62
558.74	836.76
559.10	833.71
559.45	831.24
559.81	829.38
560.16	826.81
560.52	824.67
560.87	823.14
561.23	819.43
561.58	818.95
561.94	816.29
562.29	814.24
562.64	812.05
563.00	807.95
563.35	806.81
563.71	805.81
564.06	803.90
564.42	802.43
564.77	801.19
565.12	800.76
565.48	801.10
565.83	799.48
566.19	797.90
566.54	797.05
566.89	795.76
567.25	794.57
567.60	794.71
567.96	795.57
568.31	795.81
568.66	795.90
569.02	793.14
569.37	792.43
569.72	790.81
570.08	789.62
570.43	789.05
570.78	787.38
571.14	785.62
571.49	785.00
571.84	784.33
572.20	783.05
572.55	781.33
572.90	778.52
573.26	778.14
573.61	777.76
573.96	776.33
574.31	776.14
574.67	775.52
575.02	774.05
575.37	771.67
575.72	770.24
576.08	769.67
576.43	768.48
576.78	768.43
577.13	768.14
577.49	767.95
577.84	767.38
578.19	766.43
578.54	767.05
578.90	767.05
579.25	767.00
579.60	767.19
579.95	766.57
580.30	766.62
580.66	765.90
581.01	764.38
581.36	764.33
581.71	762.95
582.06	763.38
582.42	762.33
582.77	761.14
583.12	760.19
583.47	759.19
583.82	758.52
584.17	757.14
584.53	758.00
584.88	755.81
585.23	755.86
585.58	754.90
585.93	752.00
586.28	749.29
586.63	747.57
586.98	745.33
587.34	743.48
587.69	739.90
588.04	737.10
588.39	734.38
588.74	730.81
589.09	728.62
589.44	723.67
589.79	719.90
590.14	716.38
590.49	711.52
590.84	706.48
591.19	702.90
591.54	698.76
591.89	693.43
592.25	692.10
592.60	686.38
592.95	682.81
593.30	679.48
593.65	675.76
594.00	670.52
594.35	673.43
594.70	668.95
595.05	666.43
595.40	662.76
595.75	659.95
596.10	657.19
596.45	653.19
596.80	649.62
597.15	646.71
597.50	643.05
597.85	642.14
598.19	639.10
598.54	635.95
598.89	632.71
599.24	629.86
599.59	625.29
599.94	622.62
600.29	619.48
600.64	616.48
600.99	615.00
601.34	613.71
601.69	604.52
602.04	601.67
602.39	598.33
602.74	596.24
603.08	593.81
603.43	592.33
603.78	590.86
604.13	589.14
604.48	587.29
604.83	587.14
605.18	586.19
605.53	588.33
605.87	592.14
606.22	598.76
606.57	605.90
606.92	614.95
607.27	624.67
607.62	633.52
607.96	643.33
608.31	650.90
608.66	657.81
609.01	664.48
609.36	671.38
609.70	677.95
610.05	683.24
610.40	688.52
610.75	691.67
611.10	694.67
611.44	697.52
611.79	699.95
612.14	700.67
612.49	699.71
612.83	696.67
613.18	691.00
613.53	683.05
613.88	673.29
614.22	662.00
614.57	650.62
614.92	639.43
615.27	627.86
615.61	616.48
615.96	606.81
616.31	597.71
616.65	589.57
617.00	580.43
617.35	572.43
617.70	563.95
618.04	556.71
618.39	549.90
618.74	544.62
619.08	539.10
619.43	533.95
619.78	528.95
620.12	525.48
620.47	522.00
620.82	518.48
621.16	515.62
621.51	514.14
621.85	511.38
622.20	508.76
622.55	505.05
622.89	502.24
623.24	500.10
623.59	496.86
623.93	494.33
624.28	491.81
624.62	491.90
624.97	491.33
625.32	488.57
625.66	486.76
626.01	484.71
626.35	483.00
626.70	481.57
627.04	481.29
627.39	479.57
627.73	478.52
628.08	477.38
628.43	474.81
628.77	471.33
629.12	469.00
629.46	466.81
629.81	465.29
630.15	463.57
630.50	460.76
630.84	458.38
631.19	455.38
631.53	453.29
631.88	448.14
632.22	443.76
632.57	442.81
632.91	440.14
633.26	437.43
633.60	434.29
633.95	431.33
634.29	426.81
634.64	423.67
634.98	420.38
635.32	417.76
635.67	416.29
636.01	414.19
636.36	411.48
636.70	410.10
637.05	407.71
637.39	405.76
637.73	404.00
638.08	402.90
638.42	401.10
638.77	400.05
639.11	398.38
639.45	396.24
639.80	393.52
640.14	391.86
640.49	389.86
640.83	388.43
641.17	387.33
641.52	386.67
641.86	385.81
642.20	385.52
642.55	383.48
642.89	381.86
643.23	380.52
643.58	380.52
643.92	378.33
644.26	377.76
644.61	377.48
644.95	376.48
645.29	375.24
645.64	375.48
645.98	373.95
646.32	373.52
646.66	373.14
647.01	372.24
647.35	371.57
647.69	371.29
648.04	370.86
648.38	369.81
648.72	368.76
649.06	367.24
649.41	365.62
649.75	364.90
650.09	364.29
650.43	363.33
650.78	361.33
651.12	360.38
651.46	359.24
651.80	357.86
652.14	356.48
652.49	355.95
652.83	354.24
653.17	353.10
653.51	351.67
653.85	350.76
654.20	350.05
654.54	348.48
654.88	346.43
655.22	344.95
655.56	343.43
655.90	342.62
656.25	341.95
656.59	340.90
656.93	340.29
657.27	339.90
657.61	338.90
657.95	338.90
658.29	337.90
658.64	337.62
658.98	336.10
659.32	335.57
659.66	334.29
660.00	333.43
660.34	333.19
660.68	332.76
661.02	332.33
661.36	331.14
661.70	330.86
662.05	330.48
662.39	330.38
662.73	330.71
663.07	331.67
663.41	331.14
663.75	330.29
664.09	329.76
664.43	328.57
664.77	328.00
665.11	327.00
665.45	326.57
665.79	325.95
666.13	325.48
666.47	324.48
666.81	324.24
667.15	323.43
667.49	322.90
667.83	322.67
668.17	321.67
668.51	321.24
668.85	320.71
669.19	321.48
669.53	320.10
669.87	318.76
670.21	316.43
670.55	315.38
670.89	316.19
671.23	315.14
671.57	314.29
671.91	314.00
672.25	313.19
672.58	313.52
672.92	312.19
673.26	311.76
673.60	311.43
673.94	310.71
674.28	310.43
674.62	310.05
674.96	309.24
675.30	309.10
675.64	308.57
675.97	308.24
676.31	307.00
676.65	306.52
676.99	306.86
677.33	306.05
677.67	305.90
678.01	304.05
678.34	303.86
678.68	304.05
679.02	302.90
679.36	302.24
679.70	301.14
680.04	300.86
680.37	300.19
680.71	299.52
681.05	299.10
681.39	298.33
681.73	297.38
682.06	296.57
682.40	296.14
682.74	296.24
683.08	296.48
683.42	295.95
683.75	296.33
684.09	295.38
684.43	295.33
684.77	295.05
685.10	294.95
685.44	294.38
685.78	293.57
686.12	293.52
686.45	293.33
686.79	292.38
687.13	292.00
687.46	291.62
687.80	292.14
688.14	291.24
688.48	291.14
688.81	290.81
689.15	291.24
689.49	290.71
689.82	290.19
690.16	288.76
690.50	288.05
690.83	287.19
691.17	286.29
691.51	286.29
691.84	285.43
692.18	285.00
692.52	284.86
692.85	284.81
693.19	285.33
693.52	284.95
693.86	284.76
694.20	284.29
694.53	284.10
694.87	283.24
695.21	282.67
695.54	282.19
695.88	281.24
696.21	279.86
696.55	279.52
696.88	279.05
697.22	278.48
697.56	278.24
697.89	277.43
698.23	277.67
698.56	276.57
698.90	276.76
699.23	276.24
699.57	275.71
699.90	274.76
700.24	273.81
700.58	274.00
700.91	274.29
701.25	276.48
701.58	277.29
701.92	278.00
702.25	278.76
702.59	279.19
702.92	280.24
703.26	281.10
703.59	281.38
703.93	283.43
704.26	284.38
704.60	285.48
704.93	286.10
705.26	286.24
705.60	287.33
705.93	287.38
706.27	288.43
706.60	289.38
706.94	290.95
707.27	291.00
707.61	290.76
707.94	290.95
708.27	289.29
708.61	288.57
708.94	288.05
709.28	287.48
709.61	286.71
709.94	285.95
710.28	285.62
710.61	285.05
710.95	282.67
711.28	283.76
711.61	282.24
711.95	282.00
712.28	280.57
712.61	279.95
712.95	280.33
713.28	280.33
713.61	278.90
713.95	277.14
714.28	276.29
714.61	275.33
714.95	274.14
715.28	272.57
715.61	271.71
715.95	270.67
716.28	270.05
716.61	269.86
716.95	268.95
717.28	267.95
717.61	267.19
717.94	266.62
718.28	264.00
718.61	263.71
718.94	262.81
719.27	262.86
719.61	262.76
719.94	261.52
720.27	260.00
720.60	259.76
720.94	259.48
721.27	259.48
721.60	259.86
721.93	259.71
722.27	260.57
722.60	260.67
722.93	260.52
723.26	260.52
723.59	259.90
723.93	260.24
724.26	260.62
724.59	261.05
724.92	261.05
725.25	262.05
725.59	262.29
725.92	262.48
726.25	262.10
726.58	261.81
726.91	261.90
727.24	262.00
727.57	261.86
727.91	261.48
728.24	261.43
728.57	260.71
728.90	260.76
729.23	259.71
729.56	260.86
729.89	260.71
730.22	260.48
730.55	260.10
730.89	259.67
731.22	259.10
731.55	258.38
731.88	258.19
732.21	257.38
732.54	256.57
732.87	256.43
733.20	256.38
733.53	256.29
733.86	256.10
734.19	256.00
734.52	256.10
734.85	257.90
735.18	257.62
735.51	258.57
735.84	258.86
736.17	259.95
736.50	258.29
736.83	261.00
737.16	261.05
737.49	261.38
737.82	261.29
738.15	261.76
738.48	261.67
738.81	261.48
739.14	261.05
739.47	261.05
739.80	260.76
740.13	261.33
740.46	260.57
740.79	259.95
741.12	259.86
741.45	259.33
741.78	258.14
742.11	258.86
742.44	258.14
742.77	258.24
743.10	257.19
743.43	257.10
743.75	254.14
744.08	257.00
744.41	256.67
744.74	256.48
745.07	255.52
745.40	256.19
745.73	257.00
746.06	256.76
746.39	257.05
746.71	257.05
747.04	256.57
747.37	256.67
747.70	257.24
748.03	257.10
748.36	257.33
748.68	256.95
749.01	255.81
749.34	255.90
749.67	255.62
750.00	256.24
750.33	257.90
750.65	258.29
750.98	255.24
751.31	255.43
751.64	255.71
751.97	257.00
752.29	256.48
752.62	255.43
752.95	255.29
753.28	254.90
753.60	254.90
753.93	255.48
754.26	255.33
754.59	254.71
754.91	254.19
755.24	254.05
755.57	254.10
755.90	254.00
756.22	253.57
756.55	253.24
756.88	252.67
757.20	251.05
757.53	250.14
757.86	250.00
758.19	249.86
758.51	249.62
758.84	248.19
759.17	247.90
759.49	247.90
759.82	249.38
760.15	249.57
760.47	249.29
760.80	248.38
761.13	248.71
761.45	248.29
761.78	248.38
762.11	248.43
762.43	247.90
762.76	247.86
763.08	248.05
763.41	248.00
763.74	248.00
764.06	248.10
764.39	248.38
764.71	248.19
765.04	247.81
765.37	247.43
765.69	247.52
766.02	247.67
766.34	247.90
766.67	246.48
767.00	246.62
767.32	247.71
767.65	249.10
767.97	248.95
768.30	249.48
768.62	249.38
768.95	249.29
769.27	249.48
769.60	250.05
769.92	249.52
770.25	249.00
770.57	248.19
770.90	248.00
771.22	247.95
771.55	248.00
771.87	248.00
772.20	248.00
772.52	250.43
772.85	253.24
773.17	252.76
773.50	252.86
773.82	252.57
774.15	251.62
774.47	250.10
774.80	249.86
775.12	249.52
775.45	249.57
775.77	249.38
776.09	249.48
776.42	249.10
776.74	250.19
777.07	250.00
777.39	250.57
777.72	250.24
778.04	250.29
778.36	249.95
778.69	250.24
779.01	250.52
779.33	247.90
779.66	244.71
779.98	244.67
780.31	244.48
780.63	245.19
780.95	245.29
781.28	245.19
781.60	244.86
781.92	244.76
782.25	244.48
782.57	244.81
782.89	244.33
783.22	244.29
783.54	243.57
783.86	244.00
784.19	243.52
784.51	244.52
784.83	244.14
785.16	244.43
785.48	244.14
785.80	244.10
786.12	244.43
786.45	244.71
786.77	245.05
787.09	244.76
787.42	243.90
787.74	244.14
788.06	244.24
788.38	244.05
788.71	243.86
789.03	244.05
789.35	244.00
789.67	243.71
789.99	243.86
790.32	243.52
790.64	244.19
790.96	246.67
791.28	245.71
791.61	245.81
791.93	246.00
792.25	246.19
792.57	247.95
792.89	247.67
793.21	247.86
793.54	247.19
793.86	247.38
794.18	247.67
794.50	247.05
794.82	247.10
795.14	247.57
795.47	248.24
795.79	248.10
796.11	247.48
796.43	247.67
796.75	247.52
797.07	247.67
797.39	247.33
797.71	245.29
798.04	245.29
798.36	245.33
798.68	245.05
799.00	245.10
799.32	243.71
799.64	244.43
799.96	244.52
800.28	245.10
800.60	245.14
800.92	245.48
801.24	245.52
801.56	245.62
801.89	245.67
802.21	245.81
802.53	245.76
802.85	246.48
803.17	247.95
803.49	247.71
803.81	247.81
804.13	247.86
804.45	247.76
804.77	248.33
805.09	248.43
805.41	248.48
805.73	248.00
806.05	247.48
806.37	247.00
806.69	246.62
807.01	246.71
807.33	246.76
807.65	245.81
807.97	247.05
808.28	246.81
808.60	246.67
808.92	246.38
809.24	247.90
809.56	247.43
809.88	246.14
810.20	246.24
810.52	246.52
810.84	245.71
811.16	245.48
811.48	244.76
811.80	245.52
812.12	245.14
812.43	245.76
812.75	245.95
813.07	245.62
813.39	246.00
813.71	245.57
814.03	245.29
814.35	245.48
814.67	244.33
814.98	244.24
815.30	244.10
815.62	243.52
815.94	241.76
816.26	243.10
816.58	242.86
816.89	243.29
817.21	242.38
817.53	242.57
817.85	242.57
818.17	242.62
818.48	241.81
818.80	242.05
819.12	241.52
819.44	241.19
819.76	241.10
820.07	240.95
820.39	241.05
820.71	241.29
821.03	241.48
821.34	240.95
821.66	241.43
821.98	241.62
822.30	241.62
822.61	243.43
822.93	242.00
823.25	241.95
823.57	241.48
823.88	242.24
824.20	242.00
824.52	242.38
824.83	242.43
825.15	241.81
825.47	241.90
825.79	242.14
826.10	241.95
826.42	242.00
826.74	242.05
827.05	241.81
827.37	241.81
827.69	241.29
828.00	241.95
828.32	241.62
828.64	241.33
828.95	242.67
829.27	241.48
829.58	241.48
829.90	241.90
830.22	242.14
830.53	241.52
830.85	241.62
831.17	241.19
831.48	241.48
831.80	241.95
832.11	242.10
832.43	241.62
832.75	241.62
833.06	243.33
833.38	242.52
833.69	242.52
834.01	242.81
834.32	242.86
834.64	242.24
834.96	242.33
835.27	242.38
835.59	241.71
835.90	241.38
836.22	241.19
836.53	240.52
836.85	239.90
837.16	242.05
837.48	242.05
837.79	242.67
838.11	242.29
838.42	242.05
838.74	242.19
839.05	242.24
839.37	242.10
839.68	240.14
840.00	240.33
840.31	240.67
840.63	240.19
840.94	240.05
841.26	240.00
841.57	240.00
841.88	240.14
842.20	239.57
842.51	239.33
842.83	239.57
843.14	242.00
843.46	242.38
843.77	241.43
844.08	241.38
844.40	240.52
844.71	240.43
845.03	240.29
845.34	240.14
845.65	240.33
845.97	240.62
846.28	240.76
846.60	240.86
846.91	240.43
847.22	240.52
847.54	240.86
847.85	240.95
848.16	240.76
848.48	240.48
848.79	241.71
849.10	242.05
849.42	242.14
849.73	239.81
850.04	239.62
850.36	238.57
850.67	238.90
850.98	238.90
851.30	239.14
851.61	239.38
851.92	239.19
852.23	240.14
852.55	240.14
852.86	240.05
853.17	240.14
853.49	240.95
853.80	241.62
854.11	241.76
854.42	242.19
854.74	241.90
855.05	241.81
855.36	240.14
855.67	240.57
855.99	240.52
856.30	243.52
856.61	243.43
856.92	243.57
857.23	243.52
857.55	243.57
857.86	243.57
858.17	243.52
858.48	243.24
858.79	242.33
859.11	242.29
859.42	242.52
859.73	242.24
860.04	241.86
860.35	240.71
860.66	240.14
860.98	239.76
861.29	240.19
861.60	240.00
861.91	240.81
862.22	240.38
862.53	239.86
862.84	237.05
863.16	237.95
863.47	237.43
863.78	237.24
864.09	237.67
864.40	237.43
864.71	237.71
865.02	237.95
865.33	237.48
865.64	237.38
865.95	237.19
866.27	238.86
866.58	238.81
866.89	239.19
867.20	239.33
867.51	239.10
867.82	238.90
868.13	239.86
868.44	239.14
868.75	239.38
869.06	239.86
869.37	240.10
869.68	239.10
869.99	239.90
870.30	240.14
870.61	240.29
870.92	240.24
871.23	239.71
871.54	239.86
871.85	240.67
872.16	240.86
872.47	240.52
872.78	238.90
873.09	239.00
873.40	238.67
873.71	238.86
874.02	239.05
874.33	238.76
874.64	237.81
874.95	238.71
875.26	238.29
875.56	238.00
875.87	237.43
876.18	237.24
876.49	239.48
876.80	239.19
877.11	238.62
877.42	238.57
877.73	238.90
878.04	238.38
878.35	238.29
878.66	238.52
878.96	238.43
879.27	238.90
879.58	238.81
879.89	238.62
880.20	239.10
880.51	239.24
880.82	239.48
881.12	239.95
881.43	239.00
881.74	238.57
882.05	238.43
882.36	239.05
882.67	239.29
882.97	236.62
883.28	236.57
883.59	236.43
883.90	236.71
884.21	236.86
884.51	237.29
884.82	236.95
885.13	236.90
885.44	237.10
885.74	236.86
886.05	236.81
886.36	237.48
886.67	236.71
886.98	238.00
887.28	238.19
887.59	238.14
887.90	238.57
888.20	238.90
888.51	239.62
888.82	239.19
889.13	239.33
889.43	241.10
889.74	241.24
890.05	241.33
890.35	241.33
890.66	241.33
890.97	240.90
891.28	240.62
891.58	240.57
891.89	240.71
892.20	240.19
892.50	239.95
892.81	239.43
893.12	239.19
893.42	237.95
893.73	237.81
894.04	237.71
894.34	237.86
894.65	237.86
894.95	237.48
895.26	237.71
895.57	239.24
895.87	237.24
896.18	237.38
896.48	237.76
896.79	237.67
897.10	237.71
897.40	238.24
897.71	238.71
898.01	238.52
898.32	238.76
898.63	238.81
898.93	239.05
899.24	239.24
899.54	239.43
899.85	239.19
900.15	239.29
900.46	239.33
900.76	239.52
901.07	239.48
901.38	239.71
901.68	240.14
901.99	238.76
902.29	238.90
902.60	238.71
902.90	238.29
903.21	238.29
903.51	238.48
903.82	238.90
904.12	238.95
904.43	239.24
904.73	239.29
905.03	239.76
905.34	242.29
905.64	242.33
905.95	242.10
906.25	242.14
906.56	242.38
906.86	242.48
907.17	242.33
907.47	242.52
907.77	242.19
908.08	241.90
908.38	242.29
908.69	242.38
908.99	242.90
909.30	243.29
909.60	243.48
909.90	243.29
910.21	242.38
910.51	242.00
910.81	241.86
911.12	242.05
911.42	242.14
911.73	239.29
912.03	239.52
912.33	240.29
912.64	240.29
912.94	239.86
913.24	239.67
913.55	239.38
913.85	239.10
914.15	239.76
914.46	239.57
914.76	239.05
915.06	239.14
915.37	238.90
915.67	238.81
915.97	238.71
916.27	238.24
916.58	238.57
916.88	238.81
917.18	238.67
917.49	240.48
917.79	240.33
918.09	241.00
918.39	241.38
918.70	241.29
919.00	241.43
919.30	242.76
919.60	242.86
919.91	242.67
920.21	242.76
920.51	241.81
920.81	241.71
921.12	242.29
921.42	242.05
921.72	241.95
922.02	241.76
922.32	241.90
922.63	242.00
922.93	243.10
923.23	243.00
923.53	243.00
923.83	241.33
924.13	241.19
924.44	240.81
924.74	241.24
925.04	241.90
925.34	242.00
925.64	240.95
925.94	240.81
926.24	242.19
926.55	242.10
926.85	242.67
927.15	242.71
927.45	242.67
927.75	242.81
928.05	243.00
928.35	242.86
928.65	243.38
928.95	243.48
929.26	242.33
929.56	242.76
929.86	242.81
930.16	242.24
930.46	242.24
930.76	242.24
931.06	241.14
931.36	240.19
931.66	240.38
931.96	240.48
932.26	240.52
932.56	239.43
932.86	239.57
933.16	239.48
933.46	239.14
933.76	238.86
934.06	239.81
934.36	240.29
934.66	240.57
934.96	239.95
935.26	240.29
935.56	240.67
935.86	240.05
936.16	240.10
936.46	240.00
936.76	239.81
937.06	239.81
937.36	240.00
937.66	240.43
937.96	240.24
938.26	239.57
938.56	239.29
938.86	239.29
939.16	239.76
939.46	240.05
939.76	240.24
940.06	240.14
940.35	239.52
940.65	238.43
940.95	238.29
941.25	238.05
941.55	237.38
941.85	237.29
942.15	237.48
942.45	237.90
942.75	237.86
943.04	237.86
943.34	238.33
943.64	238.19
943.94	237.43
944.24	237.67
944.54	237.81
944.84	237.67
945.13	237.67
945.43	237.24
945.73	236.95
946.03	236.95
946.33	236.67
946.62	236.14
946.92	236.52
947.22	236.76
947.52	236.90
947.82	237.57
948.11	237.24
948.41	237.19
948.71	236.29
949.01	236.52
949.31	236.29
949.60	235.86
949.90	236.10
950.20	236.29
950.50	236.05
950.79	236.24
951.09	236.48
951.39	236.33
951.69	236.24
951.98	236.76
952.28	236.52
952.58	236.52
952.87	236.62
953.17	236.62
953.47	236.24
953.76	236.24
954.06	235.48
954.36	235.24
954.66	235.10
954.95	235.95
955.25	236.00
955.55	236.62
955.84	236.52
956.14	236.67
956.44	236.90
956.73	236.38
957.03	236.14
957.32	236.24
957.62	236.05
957.92	236.29
958.21	235.90
958.51	238.67
958.81	238.95
959.10	239.00
959.40	239.33
959.69	239.71
959.99	239.90
960.29	239.95
960.58	240.05
960.88	240.81
961.17	240.86
961.47	241.14
961.76	240.81
962.06	241.00
962.36	240.62
962.65	240.67
962.95	241.00
963.24	241.00
963.54	241.14
963.83	241.52
964.13	241.52
964.42	241.05
964.72	239.14
965.01	239.05
965.31	238.90
965.60	238.29
965.90	239.67
966.19	238.86
966.49	239.38
966.78	239.14
967.08	238.86
967.37	238.29
967.67	237.67
967.96	238.10
968.26	237.95
968.55	238.43
968.85	238.14
969.14	237.95
969.43	237.62
969.73	237.43
970.02	237.38
970.32	237.43
970.61	237.29
970.91	236.76
971.20	236.38
971.49	236.29
971.79	236.81
972.08	235.43
972.38	236.10
972.67	235.95
972.96	236.24
973.26	235.52
973.55	236.48
973.85	236.52
974.14	236.29
974.43	236.86
974.73	236.24
975.02	236.10
975.31	236.29
975.61	236.67
975.90	236.19
976.19	235.81
976.49	235.95
976.78	236.19
977.07	235.86
977.37	236.43
977.66	236.71
977.95	236.24
978.24	235.95
978.54	236.29
978.83	236.10
979.12	236.05
979.42	236.76
979.71	236.29
980.00	236.14
980.29	236.33
980.59	235.57
980.88	236.10
981.17	236.29
981.46	236.10
981.76	236.05
982.05	237.33
982.34	237.67
982.63	237.52
982.93	237.86
983.22	238.81
983.51	238.57
983.80	239.10
984.09	239.52
984.39	239.57
984.68	239.24
984.97	239.33
985.26	239.38
985.55	239.33
985.85	238.71
986.14	239.57
986.43	239.71
986.72	239.95
987.01	239.52
987.30	239.29
987.59	239.62
987.89	240.00
988.18	239.14
988.47	238.76
988.76	238.43
989.05	238.05
989.34	237.71
989.63	238.29
989.92	237.52
990.22	236.95
990.51	236.76
990.80	236.62
991.09	236.67
991.38	237.00
991.67	236.48
991.96	236.38
992.25	236.14
992.54	235.71
992.83	235.24
993.12	234.95
993.41	235.90
993.70	236.90
993.99	236.95
994.28	237.57
994.58	237.90
994.87	237.81
995.16	237.62
995.45	237.29
995.74	236.33
996.03	236.62
996.32	236.90
996.61	237.52
996.90	237.38
997.19	237.43
997.48	237.14
997.77	237.29
998.06	237.48
998.34	237.05
998.63	237.19
998.92	237.67
999.21	238.43
999.50	237.95
999.79	237.00
1000.08	237.33
1000.37	236.90
1000.66	236.90
1000.95	237.62
1001.24	238.00
1001.53	238.67
1001.82	239.29
1002.11	239.14
1002.40	239.71
1002.68	240.05
1002.97	242.33
1003.26	242.14
1003.55	242.00
1003.84	242.24
1004.13	242.95
1004.42	242.76
1004.71	242.38
1004.99	241.67
1005.28	241.62
1005.57	241.90
1005.86	241.38
1006.15	240.90
1006.44	240.86
1006.72	241.05
1007.01	240.19
1007.30	240.10
1007.59	239.33
1007.88	239.00
1008.17	239.14
1008.45	238.43
1008.74	237.67
1009.03	236.38
1009.32	236.29
1009.60	236.10
1009.89	235.90
1010.18	235.14
1010.47	235.19
1010.76	235.24
1011.04	235.71
1011.33	235.43
1011.62	235.48
1011.91	235.67
1012.19	235.90
1012.48	236.00
1012.77	235.95
1013.05	237.52
1013.34	237.86
1013.63	237.95
1013.92	238.10
1014.20	237.57
1014.49	237.90
1014.78	238.10
1015.06	236.81
1015.35	236.76
1015.64	237.19
1015.92	237.43
1016.21	237.62
1016.50	237.33
1016.78	237.95
1017.07	238.14
1017.36	238.14
1017.64	237.67
1017.93	238.43
1018.22	238.29
1018.50	238.05
1018.79	238.29
1019.08	237.14
1019.36	236.95
1019.65	236.67
1019.93	237.19
1020.22	237.81
1020.51	238.67
1020.79	238.43
1021.08	239.00
1021.36	233.00
1021.65	244.00
1021.94	238.00
1022.22	238.00
1022.51	231.00
1022.79	248.00
1023.08	241.00
1023.36	260.00
1023.65	233.00
>>>>>End Processed Spectral Data<<<<<
