SpectraSuite Data File
++++++++++++++++++++++++++++++++++++
Date: Wed Nov 07 18:31:22 EST 2012
User: group
Dark Spectrum Present: No
Reference Spectrum Present: No
Number of Sampled Component Spectra: 1
Spectrometers: USB2E7196
Integration Time (usec): 1000000 (USB2E7196)
Spectra Averaged: 1 (USB2E7196)
Boxcar Smoothing: 10 (USB2E7196)
Correct for Electrical Dark: No (USB2E7196)
Strobe/Lamp Enabled: No (USB2E7196)
Correct for Detector Non-linearity: No (USB2E7196)
Correct for Stray Light: No (USB2E7196)
Number of Pixels in Processed Spectrum: 2048
>>>>>Begin Processed Spectral Data<<<<<
339.09	0.00
339.48	221.00
339.86	225.00
340.24	228.00
340.63	230.00
341.01	266.00
341.39	234.00
341.78	240.00
342.16	240.00
342.54	238.00
342.93	225.48
343.31	236.38
343.69	237.00
344.07	237.29
344.46	237.95
344.84	238.14
345.22	236.67
345.60	236.67
345.99	236.52
346.37	236.29
346.75	235.95
347.13	236.10
347.52	236.05
347.90	236.71
348.28	236.81
348.66	237.43
349.05	236.38
349.43	236.81
349.81	236.95
350.19	237.00
350.57	237.10
350.96	237.43
351.34	237.86
351.72	238.10
352.10	238.19
352.48	237.81
352.87	237.52
353.25	237.57
353.63	237.57
354.01	237.57
354.39	237.76
354.77	237.67
355.15	238.10
355.54	237.76
355.92	237.14
356.30	236.95
356.68	237.86
357.06	238.33
357.44	237.48
357.82	237.10
358.20	237.19
358.58	236.95
358.97	237.10
359.35	237.52
359.73	237.62
360.11	237.57
360.49	237.95
360.87	238.29
361.25	238.43
361.63	239.19
362.01	239.10
362.39	239.10
362.77	239.48
363.15	239.29
363.53	239.38
363.91	239.29
364.29	239.24
364.67	237.19
365.05	236.90
365.43	237.62
365.81	237.81
366.19	238.57
366.57	239.57
366.95	239.57
367.33	239.10
367.71	238.86
368.09	239.24
368.47	238.86
368.85	238.62
369.23	239.10
369.61	238.19
369.99	239.10
370.37	239.33
370.75	240.71
371.13	240.05
371.51	240.00
371.89	240.52
372.27	240.95
372.65	241.24
373.03	241.19
373.41	240.86
373.78	240.81
374.16	239.57
374.54	238.95
374.92	238.81
375.30	238.71
375.68	238.43
376.06	238.62
376.44	238.43
376.82	238.57
377.19	238.24
377.57	238.33
377.95	237.52
378.33	237.19
378.71	235.43
379.09	236.24
379.47	236.38
379.84	236.10
380.22	235.95
380.60	235.67
380.98	235.67
381.36	235.52
381.73	235.38
382.11	236.38
382.49	236.29
382.87	235.81
383.25	235.95
383.62	239.00
384.00	238.62
384.38	239.05
384.76	239.95
385.13	241.10
385.51	241.05
385.89	240.86
386.27	240.86
386.64	241.24
387.02	240.95
387.40	241.00
387.78	241.33
388.15	241.57
388.53	241.67
388.91	241.67
389.29	241.90
389.66	242.24
390.04	241.57
390.42	242.10
390.79	242.62
391.17	242.67
391.55	240.00
391.92	240.14
392.30	240.48
392.68	239.38
393.05	239.05
393.43	239.24
393.81	239.67
394.18	239.24
394.56	239.57
394.94	240.29
395.31	240.00
395.69	240.90
396.06	240.76
396.44	240.95
396.82	240.90
397.19	241.90
397.57	241.81
397.95	242.33
398.32	241.67
398.70	241.86
399.07	242.19
399.45	242.24
399.82	242.29
400.20	242.19
400.58	242.52
400.95	241.67
401.33	242.24
401.70	244.00
402.08	244.57
402.45	244.57
402.83	244.95
403.20	245.48
403.58	244.95
403.95	245.81
404.33	246.38
404.71	246.81
405.08	248.38
405.46	248.86
405.83	249.48
406.21	249.95
406.58	250.33
406.96	250.76
407.33	251.29
407.70	251.86
408.08	254.38
408.45	255.67
408.83	256.71
409.20	257.19
409.58	256.52
409.95	257.81
410.33	258.90
410.70	259.05
411.08	260.43
411.45	261.38
411.82	262.10
412.20	263.76
412.57	266.29
412.95	265.71
413.32	267.48
413.69	268.71
414.07	270.86
414.44	272.48
414.82	274.62
415.19	277.10
415.56	279.81
415.94	280.71
416.31	283.33
416.68	286.48
417.06	289.81
417.43	293.57
417.81	296.95
418.18	300.86
418.55	304.71
418.93	308.86
419.30	313.29
419.67	317.86
420.04	322.52
420.42	326.95
420.79	334.38
421.16	339.57
421.54	346.38
421.91	352.43
422.28	358.86
422.66	365.19
423.03	373.48
423.40	380.33
423.77	386.76
424.15	394.00
424.52	401.29
424.89	410.29
425.26	417.67
425.64	425.71
426.01	433.67
426.38	442.52
426.75	451.81
427.13	460.81
427.50	469.76
427.87	478.95
428.24	488.76
428.61	496.38
428.99	508.52
429.36	519.48
429.73	529.86
430.10	541.90
430.47	554.71
430.85	565.76
431.22	578.19
431.59	593.95
431.96	606.86
432.33	621.52
432.70	634.95
433.08	651.14
433.45	665.81
433.82	681.48
434.19	698.19
434.56	714.24
434.93	730.05
435.30	746.00
435.68	764.00
436.05	780.19
436.42	797.24
436.79	812.24
437.16	828.14
437.53	846.67
437.90	863.86
438.27	880.48
438.64	897.24
439.01	912.81
439.38	925.24
439.75	938.62
440.13	953.86
440.50	968.33
440.87	979.19
441.24	990.86
441.61	1002.48
441.98	1011.52
442.35	1022.00
442.72	1033.19
443.09	1045.00
443.46	1051.38
443.83	1055.62
444.20	1058.29
444.57	1062.33
444.94	1063.76
445.31	1064.29
445.68	1067.38
446.05	1067.24
446.42	1063.33
446.79	1061.33
447.16	1057.43
447.53	1054.24
447.90	1046.00
448.27	1037.29
448.64	1028.10
449.01	1020.67
449.37	1009.29
449.74	997.71
450.11	986.57
450.48	971.10
450.85	954.14
451.22	940.71
451.59	928.95
451.96	917.43
452.33	901.62
452.70	887.33
453.07	870.90
453.43	851.33
453.80	834.38
454.17	819.29
454.54	803.52
454.91	787.86
455.28	772.48
455.65	758.05
456.02	748.48
456.38	735.86
456.75	721.48
457.12	709.24
457.49	696.71
457.86	682.05
458.23	673.29
458.59	662.62
458.96	650.81
459.33	639.71
459.70	630.00
460.07	622.52
460.43	613.81
460.80	605.95
461.17	598.62
461.54	590.62
461.91	583.48
462.27	575.67
462.64	569.24
463.01	562.86
463.38	557.62
463.74	546.52
464.11	540.10
464.48	534.57
464.85	528.48
465.21	525.05
465.58	521.33
465.95	514.33
466.32	510.19
466.68	505.43
467.05	500.86
467.42	495.95
467.78	490.67
468.15	486.43
468.52	483.38
468.88	478.95
469.25	474.81
469.62	472.10
469.98	469.00
470.35	465.62
470.72	462.29
471.08	457.38
471.45	455.19
471.82	453.62
472.18	450.62
472.55	448.67
472.92	445.05
473.28	441.71
473.65	439.38
474.02	436.62
474.38	434.95
474.75	433.76
475.11	431.52
475.48	430.48
475.85	428.38
476.21	426.29
476.58	425.14
476.94	424.38
477.31	422.29
477.67	421.14
478.04	420.10
478.41	419.57
478.77	421.95
479.14	420.81
479.50	419.95
479.87	420.00
480.23	419.90
480.60	420.29
480.96	420.38
481.33	422.14
481.69	423.10
482.06	423.86
482.42	424.86
482.79	426.33
483.15	427.19
483.52	429.14
483.88	429.62
484.25	430.43
484.61	431.24
484.98	433.19
485.34	435.57
485.71	438.10
486.07	439.48
486.44	438.62
486.80	440.48
487.17	441.52
487.53	443.57
487.90	445.57
488.26	447.81
488.62	450.33
488.99	451.33
489.35	452.81
489.72	454.33
490.08	455.81
490.44	457.57
490.81	459.76
491.17	461.29
491.54	464.33
491.90	466.90
492.26	469.29
492.63	471.43
492.99	473.24
493.36	475.52
493.72	478.81
494.08	481.71
494.45	484.52
494.81	488.10
495.17	490.81
495.54	493.90
495.90	496.48
496.26	499.48
496.63	502.95
496.99	507.19
497.35	511.00
497.72	514.81
498.08	518.48
498.44	522.05
498.80	526.62
499.17	530.00
499.53	534.19
499.89	539.10
500.26	543.67
500.62	548.86
500.98	553.57
501.34	557.38
501.71	562.52
502.07	566.86
502.43	571.24
502.79	575.67
503.16	580.48
503.52	585.24
503.88	590.00
504.24	595.43
504.60	600.33
504.97	605.67
505.33	611.00
505.69	616.76
506.05	621.57
506.41	626.24
506.78	631.29
507.14	636.38
507.50	641.05
507.86	646.57
508.22	651.43
508.59	656.86
508.95	661.90
509.31	667.90
509.67	673.52
510.03	679.19
510.39	684.86
510.75	689.86
511.12	695.81
511.48	700.67
511.84	704.90
512.20	709.43
512.56	714.14
512.92	718.67
513.28	723.86
513.64	728.24
514.00	733.29
514.37	737.90
514.73	741.86
515.09	747.24
515.45	750.48
515.81	754.52
516.17	758.05
516.53	762.76
516.89	765.29
517.25	769.29
517.61	773.00
517.97	776.43
518.33	780.48
518.69	783.86
519.05	788.38
519.41	792.71
519.77	797.71
520.13	800.76
520.49	803.90
520.85	805.71
521.21	810.76
521.57	813.14
521.93	816.62
522.29	819.62
522.65	820.52
523.01	823.67
523.37	825.19
523.73	827.90
524.09	830.14
524.45	832.43
524.81	834.05
525.17	836.05
525.53	838.52
525.89	839.52
526.25	841.29
526.61	842.14
526.97	842.14
527.33	842.81
527.68	846.29
528.04	848.48
528.40	850.05
528.76	850.95
529.12	852.43
529.48	853.90
529.84	855.14
530.20	856.57
530.56	857.76
530.91	859.95
531.27	860.62
531.63	861.38
531.99	862.57
532.35	863.29
532.71	864.71
533.07	864.90
533.42	868.90
533.78	869.29
534.14	870.71
534.50	872.29
534.86	873.43
535.21	872.90
535.57	873.95
535.93	874.90
536.29	876.38
536.65	878.62
537.00	879.05
537.36	881.90
537.72	885.14
538.08	888.43
538.44	890.71
538.79	895.19
539.15	898.71
539.51	903.43
539.87	907.67
540.22	909.95
540.58	913.95
540.94	915.76
541.29	919.76
541.65	922.38
542.01	926.57
542.37	929.33
542.72	930.38
543.08	931.24
543.44	932.00
543.79	930.95
544.15	931.67
544.51	932.90
544.87	931.00
545.22	929.52
545.58	927.33
545.94	924.67
546.29	920.33
546.65	916.76
547.01	910.81
547.36	906.76
547.72	904.24
548.07	899.95
548.43	894.67
548.79	889.67
549.14	885.10
549.50	880.10
549.86	874.71
550.21	871.71
550.57	868.05
550.92	864.67
551.28	862.62
551.64	858.52
551.99	855.19
552.35	852.52
552.70	849.71
553.06	847.48
553.41	845.10
553.77	844.57
554.13	842.76
554.48	842.05
554.84	840.38
555.19	837.86
555.55	836.90
555.90	835.29
556.26	833.52
556.61	831.38
556.97	828.81
557.32	827.10
557.68	825.38
558.03	823.86
558.39	822.57
558.74	819.33
559.10	817.86
559.45	816.10
559.81	814.33
560.16	812.33
560.52	810.05
560.87	808.29
561.23	805.29
561.58	804.81
561.94	801.86
562.29	800.29
562.64	798.90
563.00	795.81
563.35	793.90
563.71	792.76
564.06	791.62
564.42	789.90
564.77	788.48
565.12	787.10
565.48	788.10
565.83	787.67
566.19	786.62
566.54	785.14
566.89	783.33
567.25	783.14
567.60	783.38
567.96	783.81
568.31	784.19
568.66	784.29
569.02	781.76
569.37	780.95
569.72	779.62
570.08	777.90
570.43	776.90
570.78	775.24
571.14	773.14
571.49	771.71
571.84	770.71
572.20	769.62
572.55	767.90
572.90	763.86
573.26	761.90
573.61	760.76
573.96	759.10
574.31	758.24
574.67	756.62
575.02	754.10
575.37	749.86
575.72	747.00
576.08	744.00
576.43	742.57
576.78	741.24
577.13	738.95
577.49	737.24
577.84	736.10
578.19	735.24
578.54	734.43
578.90	733.81
579.25	733.38
579.60	732.00
579.95	730.57
580.30	729.67
580.66	727.90
581.01	726.19
581.36	724.95
581.71	723.29
582.06	722.90
582.42	721.81
582.77	721.29
583.12	720.38
583.47	719.57
583.82	718.10
584.17	717.00
584.53	716.71
584.88	715.00
585.23	714.05
585.58	711.95
585.93	709.52
586.28	707.52
586.63	704.86
586.98	703.62
587.34	701.48
587.69	698.48
588.04	696.43
588.39	694.29
588.74	691.57
589.09	689.67
589.44	685.24
589.79	682.33
590.14	679.95
590.49	676.81
590.84	673.38
591.19	670.90
591.54	667.76
591.89	663.57
592.25	662.33
592.60	658.33
592.95	655.62
593.30	653.71
593.65	650.10
594.00	646.67
594.35	649.57
594.70	646.24
595.05	643.86
595.40	640.38
595.75	638.00
596.10	635.29
596.45	631.62
596.80	629.10
597.15	625.57
597.50	622.33
597.85	620.05
598.19	617.52
598.54	614.19
598.89	611.05
599.24	608.86
599.59	604.86
599.94	602.05
600.29	599.00
600.64	596.76
600.99	595.71
601.34	593.38
601.69	583.71
602.04	581.24
602.39	578.76
602.74	577.14
603.08	575.19
603.43	574.29
603.78	572.57
604.13	570.62
604.48	569.24
604.83	568.33
605.18	566.81
605.53	566.76
605.87	568.71
606.22	571.81
606.57	575.90
606.92	580.33
607.27	585.19
607.62	590.71
607.96	594.62
608.31	597.33
608.66	601.10
609.01	604.86
609.36	608.24
609.70	611.57
610.05	613.48
610.40	615.62
610.75	616.71
611.10	618.62
611.44	619.43
611.79	620.05
612.14	619.62
612.49	618.14
612.83	615.71
613.18	611.24
613.53	605.71
613.88	599.67
614.22	592.29
614.57	585.14
614.92	577.05
615.27	569.76
615.61	563.14
615.96	556.33
616.31	549.86
616.65	544.19
617.00	538.05
617.35	533.29
617.70	527.57
618.04	522.10
618.39	516.86
618.74	513.57
619.08	510.00
619.43	506.33
619.78	503.90
620.12	500.86
620.47	498.19
620.82	495.57
621.16	492.29
621.51	491.90
621.85	488.90
622.20	486.71
622.55	483.71
622.89	481.52
623.24	480.19
623.59	478.10
623.93	476.57
624.28	474.48
624.62	474.76
624.97	474.81
625.32	472.86
625.66	471.10
626.01	469.14
626.35	467.52
626.70	465.71
627.04	464.62
627.39	463.38
627.73	462.67
628.08	461.19
628.43	459.76
628.77	456.10
629.12	454.52
629.46	452.71
629.81	451.14
630.15	448.95
630.50	446.38
630.84	444.43
631.19	442.05
631.53	440.19
631.88	435.76
632.22	431.62
632.57	430.33
632.91	428.48
633.26	426.43
633.60	423.71
633.95	422.19
634.29	419.24
634.64	416.76
634.98	413.81
635.32	412.38
635.67	410.43
636.01	409.00
636.36	407.33
636.70	406.10
637.05	404.76
637.39	402.57
637.73	401.57
638.08	401.05
638.42	399.19
638.77	397.52
639.11	395.71
639.45	394.33
639.80	391.90
640.14	390.52
640.49	388.71
640.83	387.57
641.17	385.81
641.52	384.29
641.86	383.10
642.20	382.95
642.55	380.90
642.89	379.71
643.23	378.67
643.58	378.43
643.92	376.71
644.26	375.24
644.61	374.95
644.95	373.52
645.29	371.52
645.64	371.48
645.98	370.67
646.32	370.57
646.66	369.57
647.01	368.76
647.35	368.14
647.69	367.57
648.04	366.67
648.38	366.24
648.72	365.14
649.06	364.14
649.41	361.71
649.75	361.05
650.09	360.38
650.43	359.00
650.78	357.00
651.12	356.05
651.46	355.14
651.80	354.24
652.14	353.00
652.49	352.95
652.83	351.00
653.17	349.76
653.51	348.05
653.85	347.57
654.20	346.62
654.54	344.62
654.88	342.95
655.22	341.57
655.56	340.10
655.90	339.57
656.25	338.52
656.59	338.05
656.93	337.19
657.27	336.43
657.61	335.24
657.95	334.43
658.29	333.95
658.64	333.57
658.98	332.71
659.32	331.71
659.66	330.24
660.00	329.86
660.34	329.10
660.68	328.24
661.02	327.14
661.36	326.62
661.70	326.24
662.05	325.57
662.39	325.76
662.73	325.76
663.07	326.38
663.41	326.05
663.75	325.43
664.09	324.71
664.43	323.33
664.77	322.86
665.11	322.24
665.45	321.57
665.79	321.29
666.13	320.52
666.47	320.29
666.81	319.90
667.15	318.76
667.49	318.62
667.83	318.81
668.17	318.33
668.51	317.81
668.85	318.00
669.19	318.48
669.53	316.95
669.87	315.71
670.21	314.05
670.55	313.24
670.89	313.86
671.23	313.33
671.57	313.00
671.91	312.81
672.25	312.38
672.58	312.57
672.92	310.76
673.26	310.38
673.60	310.14
673.94	309.38
674.28	309.19
674.62	308.86
674.96	308.05
675.30	307.71
675.64	307.05
675.97	305.86
676.31	304.48
676.65	304.14
676.99	304.19
677.33	303.33
677.67	303.14
678.01	301.14
678.34	300.71
678.68	300.62
679.02	299.90
679.36	299.38
679.70	298.38
680.04	298.29
680.37	297.67
680.71	296.90
681.05	296.71
681.39	296.24
681.73	295.52
682.06	294.57
682.40	294.05
682.74	294.10
683.08	294.81
683.42	294.48
683.75	294.62
684.09	293.86
684.43	293.29
684.77	292.38
685.10	292.29
685.44	291.86
685.78	291.19
686.12	290.62
686.45	290.43
686.79	289.76
687.13	290.14
687.46	289.71
687.80	290.05
688.14	289.71
688.48	289.48
688.81	289.24
689.15	290.05
689.49	289.29
689.82	288.90
690.16	287.33
690.50	286.95
690.83	286.24
691.17	285.71
691.51	286.10
691.84	286.33
692.18	285.86
692.52	285.43
692.85	285.38
693.19	286.10
693.52	285.90
693.86	285.33
694.20	284.52
694.53	284.29
694.87	283.43
695.21	282.62
695.54	282.19
695.88	281.38
696.21	280.24
696.55	280.05
696.88	279.38
697.22	279.00
697.56	279.14
697.89	278.71
698.23	278.71
698.56	277.71
698.90	277.90
699.23	277.81
699.57	277.71
699.90	276.81
700.24	275.71
700.58	275.43
700.91	275.76
701.25	277.86
701.58	278.48
701.92	279.24
702.25	279.24
702.59	279.24
702.92	279.67
703.26	279.71
703.59	280.29
703.93	282.81
704.26	283.57
704.60	283.90
704.93	284.33
705.26	284.48
705.60	285.29
705.93	284.90
706.27	285.67
706.60	286.24
706.94	287.71
707.27	287.76
707.61	288.43
707.94	288.52
708.27	286.71
708.61	285.76
708.94	285.43
709.28	285.76
709.61	285.76
709.94	285.57
710.28	285.48
710.61	285.00
710.95	281.76
711.28	282.33
711.61	281.24
711.95	281.19
712.28	280.00
712.61	279.24
712.95	279.57
713.28	279.67
713.61	278.67
713.95	277.10
714.28	276.57
714.61	275.38
714.95	274.33
715.28	273.43
715.61	272.57
715.95	271.95
716.28	271.10
716.61	270.24
716.95	269.10
717.28	268.00
717.61	267.43
717.94	267.19
718.28	265.24
718.61	264.76
718.94	263.76
719.27	263.57
719.61	263.48
719.94	262.33
720.27	260.86
720.60	260.10
720.94	260.33
721.27	260.10
721.60	259.90
721.93	259.71
722.27	260.29
722.60	260.62
722.93	259.90
723.26	259.67
723.59	259.57
723.93	259.76
724.26	260.24
724.59	259.95
724.92	260.00
725.25	260.48
725.59	260.52
725.92	260.67
726.25	260.38
726.58	260.19
726.91	260.24
727.24	260.67
727.57	261.05
727.91	260.33
728.24	260.19
728.57	259.67
728.90	259.81
729.23	258.71
729.56	259.76
729.89	259.81
730.22	259.81
730.55	259.33
730.89	259.48
731.22	258.86
731.55	258.67
731.88	259.05
732.21	258.33
732.54	258.05
732.87	257.81
733.20	258.00
733.53	257.71
733.86	257.62
734.19	256.86
734.52	256.71
734.85	258.14
735.18	258.24
735.51	259.14
735.84	259.19
736.17	260.00
736.50	258.67
736.83	261.48
737.16	261.24
737.49	261.57
737.82	261.05
738.15	261.48
738.48	261.38
738.81	261.00
739.14	260.90
739.47	260.62
739.80	260.48
740.13	260.76
740.46	260.71
740.79	260.14
741.12	260.29
741.45	259.90
741.78	258.38
742.11	258.48
742.44	257.71
742.77	257.86
743.10	257.19
743.43	256.95
743.75	254.14
744.08	257.00
744.41	256.90
744.74	256.76
745.07	256.10
745.40	256.24
745.73	257.19
746.06	257.29
746.39	257.57
746.71	257.67
747.04	257.00
747.37	256.43
747.70	256.95
748.03	256.67
748.36	257.24
748.68	257.24
749.01	256.52
749.34	256.33
749.67	256.29
750.00	256.62
750.33	258.24
750.65	258.29
750.98	255.48
751.31	255.29
751.64	255.24
751.97	256.81
752.29	256.62
752.62	255.33
752.95	255.00
753.28	254.43
753.60	254.14
753.93	254.67
754.26	255.00
754.59	254.14
754.91	253.86
755.24	253.43
755.57	253.24
755.90	253.05
756.22	253.00
756.55	252.38
756.88	251.62
757.20	249.71
757.53	248.67
757.86	248.43
758.19	248.43
758.51	248.62
758.84	246.86
759.17	246.43
759.49	246.38
759.82	247.48
760.15	247.67
760.47	247.52
760.80	247.05
761.13	247.19
761.45	247.24
761.78	247.38
762.11	247.48
762.43	247.33
762.76	247.19
763.08	247.33
763.41	247.67
763.74	247.76
764.06	247.86
764.39	248.38
764.71	248.57
765.04	248.29
765.37	247.86
765.69	247.95
766.02	248.19
766.34	248.00
766.67	246.62
767.00	247.00
767.32	248.10
767.65	249.52
767.97	249.38
768.30	249.43
768.62	249.48
768.95	249.24
769.27	249.43
769.60	249.90
769.92	249.29
770.25	248.57
770.57	248.14
770.90	248.24
771.22	247.81
771.55	247.38
771.87	247.38
772.20	247.24
772.52	249.24
772.85	251.90
773.17	251.95
773.50	252.19
773.82	252.10
774.15	250.76
774.47	249.00
774.80	248.24
775.12	248.05
775.45	247.90
775.77	247.95
776.09	248.14
776.42	248.05
776.74	249.14
777.07	248.90
777.39	249.24
777.72	249.05
778.04	249.14
778.36	249.10
778.69	249.14
779.01	249.48
779.33	247.33
779.66	244.81
779.98	244.48
780.31	244.57
780.63	245.57
780.95	246.14
781.28	245.95
781.60	246.14
781.92	246.00
782.25	245.90
782.57	246.10
782.89	245.57
783.22	245.57
783.54	244.81
783.86	245.48
784.19	245.05
784.51	245.57
784.83	245.19
785.16	245.24
785.48	245.29
785.80	245.19
786.12	245.67
786.45	245.43
786.77	245.81
787.09	245.90
787.42	244.76
787.74	244.95
788.06	245.29
788.38	245.43
788.71	245.38
789.03	245.52
789.35	245.52
789.67	245.24
789.99	245.19
790.32	244.90
790.64	245.05
790.96	246.86
791.28	246.24
791.61	246.52
791.93	246.62
792.25	246.57
792.57	248.19
792.89	247.67
793.21	247.86
793.54	247.43
793.86	246.76
794.18	246.81
794.50	246.00
794.82	245.95
795.14	246.24
795.47	247.00
795.79	247.05
796.11	246.57
796.43	246.48
796.75	246.81
797.07	247.00
797.39	246.76
797.71	245.48
798.04	245.52
798.36	245.29
798.68	245.14
799.00	245.14
799.32	243.67
799.64	244.19
799.96	244.10
800.28	244.52
800.60	244.57
800.92	244.76
801.24	244.90
801.56	245.14
801.89	245.05
802.21	245.10
802.53	244.81
802.85	245.10
803.17	246.14
803.49	245.52
803.81	245.29
804.13	244.95
804.45	244.29
804.77	244.24
805.09	244.57
805.41	244.29
805.73	243.95
806.05	243.52
806.37	243.00
806.69	243.24
807.01	242.95
807.33	243.24
807.65	242.48
807.97	243.67
808.28	243.43
808.60	243.38
808.92	242.81
809.24	243.81
809.56	243.33
809.88	242.76
810.20	242.95
810.52	243.62
810.84	243.33
811.16	243.29
811.48	243.48
811.80	244.29
812.12	244.48
812.43	244.95
812.75	245.33
813.07	245.48
813.39	245.00
813.71	245.00
814.03	244.95
814.35	245.24
814.67	243.90
814.98	243.48
815.30	243.29
815.62	242.62
815.94	241.43
816.26	242.71
816.58	242.48
816.89	242.19
817.21	241.57
817.53	241.90
817.85	242.24
818.17	241.71
818.48	240.71
818.80	241.19
819.12	241.00
819.44	240.67
819.76	240.14
820.07	240.43
820.39	240.29
820.71	240.57
821.03	240.62
821.34	240.71
821.66	241.62
821.98	241.90
822.30	242.24
822.61	244.00
822.93	242.57
823.25	242.29
823.57	242.57
823.88	243.14
824.20	242.90
824.52	243.14
824.83	243.33
825.15	243.19
825.47	242.43
825.79	242.43
826.10	242.24
826.42	242.19
826.74	242.05
827.05	242.14
827.37	242.05
827.69	241.90
828.00	241.81
828.32	241.57
828.64	241.24
828.95	242.57
829.27	241.71
829.58	241.95
829.90	242.43
830.22	242.62
830.53	241.71
830.85	241.57
831.17	241.00
831.48	241.05
831.80	240.95
832.11	241.24
832.43	241.00
832.75	240.71
833.06	242.29
833.38	242.00
833.69	241.71
834.01	241.81
834.32	241.67
834.64	241.81
834.96	241.81
835.27	241.86
835.59	241.05
835.90	240.62
836.22	240.48
836.53	239.90
836.85	239.33
837.16	241.90
837.48	242.29
837.79	243.10
838.11	243.33
838.42	243.43
838.74	243.81
839.05	243.52
839.37	243.76
839.68	242.48
840.00	242.48
840.31	243.14
840.63	242.90
840.94	242.67
841.26	242.10
841.57	241.76
841.88	241.86
842.20	241.48
842.51	241.00
842.83	241.29
843.14	243.43
843.46	243.62
843.77	242.43
844.08	242.00
844.40	241.29
844.71	240.67
845.03	240.52
845.34	240.19
845.65	240.10
845.97	240.38
846.28	240.29
846.60	240.29
846.91	239.95
847.22	239.81
847.54	240.33
847.85	240.33
848.16	239.95
848.48	239.62
848.79	240.76
849.10	240.95
849.42	240.81
849.73	238.57
850.04	238.62
850.36	237.43
850.67	238.14
850.98	238.05
851.30	238.48
851.61	238.57
851.92	238.67
852.23	239.67
852.55	239.62
852.86	239.52
853.17	239.71
853.49	240.19
853.80	240.57
854.11	240.67
854.42	241.48
854.74	241.48
855.05	241.52
855.36	240.43
855.67	240.71
855.99	240.62
856.30	243.62
856.61	243.33
856.92	243.71
857.23	243.33
857.55	243.00
857.86	242.67
858.17	243.05
858.48	242.43
858.79	241.95
859.11	241.90
859.42	241.95
859.73	241.57
860.04	241.14
860.35	240.43
860.66	239.81
860.98	239.76
861.29	240.05
861.60	239.67
861.91	239.95
862.22	239.43
862.53	239.43
862.84	236.76
863.16	237.62
863.47	236.95
863.78	236.62
864.09	237.00
864.40	237.33
864.71	237.05
865.02	237.48
865.33	237.05
865.64	236.71
865.95	236.52
866.27	238.38
866.58	238.10
866.89	238.48
867.20	238.48
867.51	238.00
867.82	237.86
868.13	238.76
868.44	238.19
868.75	238.81
869.06	239.14
869.37	239.10
869.68	238.14
869.99	238.57
870.30	238.90
870.61	239.24
870.92	238.81
871.23	238.67
871.54	238.90
871.85	239.57
872.16	239.95
872.47	239.81
872.78	238.14
873.09	238.48
873.40	238.14
873.71	238.62
874.02	238.67
874.33	238.62
874.64	238.14
874.95	238.71
875.26	238.05
875.56	237.71
875.87	238.00
876.18	238.00
876.49	240.76
876.80	240.52
877.11	240.19
877.42	240.48
877.73	240.81
878.04	240.52
878.35	240.57
878.66	240.57
878.96	240.86
879.27	240.90
879.58	241.00
879.89	241.29
880.20	241.38
880.51	241.33
880.82	241.10
881.12	241.29
881.43	240.62
881.74	240.76
882.05	240.62
882.36	240.38
882.67	240.52
882.97	237.81
883.28	237.57
883.59	237.19
883.90	237.57
884.21	237.86
884.51	237.76
884.82	237.33
885.13	237.43
885.44	237.29
885.74	237.19
886.05	236.76
886.36	236.52
886.67	235.67
886.98	236.71
887.28	237.14
887.59	237.05
887.90	237.33
888.20	237.14
888.51	237.52
888.82	237.19
889.13	237.52
889.43	239.29
889.74	239.38
890.05	239.57
890.35	239.10
890.66	238.71
890.97	238.71
891.28	238.48
891.58	238.67
891.89	238.76
892.20	238.67
892.50	238.62
892.81	238.57
893.12	239.05
893.42	238.14
893.73	238.19
894.04	238.43
894.34	238.43
894.65	238.43
894.95	238.19
895.26	238.38
895.57	239.62
895.87	237.62
896.18	238.14
896.48	238.24
896.79	238.24
897.10	238.62
897.40	238.81
897.71	239.14
898.01	238.81
898.32	239.05
898.63	238.90
898.93	238.90
899.24	238.95
899.54	238.81
899.85	238.52
900.15	238.62
900.46	238.33
900.76	238.76
901.07	238.71
901.38	238.62
901.68	238.76
901.99	237.19
902.29	237.38
902.60	236.90
902.90	236.81
903.21	236.90
903.51	236.67
903.82	237.05
904.12	236.90
904.43	237.00
904.73	236.95
905.03	237.43
905.34	239.86
905.64	239.71
905.95	239.76
906.25	240.14
906.56	239.76
906.86	240.05
907.17	239.81
907.47	240.10
907.77	240.00
908.08	239.71
908.38	240.14
908.69	240.14
908.99	240.71
909.30	241.10
909.60	241.00
909.90	241.00
910.21	240.14
910.51	240.05
910.81	240.10
911.12	240.14
911.42	239.67
911.73	237.19
912.03	237.29
912.33	238.00
912.64	237.81
912.94	237.71
913.24	237.29
913.55	236.86
913.85	236.62
914.15	237.00
914.46	237.29
914.76	236.90
915.06	236.95
915.37	236.67
915.67	236.24
915.97	236.62
916.27	236.38
916.58	236.52
916.88	236.43
917.18	236.14
917.49	238.00
917.79	238.14
918.09	238.57
918.39	239.14
918.70	238.57
919.00	238.52
919.30	239.95
919.60	239.62
919.91	239.76
920.21	239.86
920.51	239.43
920.81	239.43
921.12	239.86
921.42	239.71
921.72	239.71
922.02	240.05
922.32	240.33
922.63	240.24
922.93	241.90
923.23	242.00
923.53	242.10
923.83	240.10
924.13	240.52
924.44	240.57
924.74	241.00
925.04	241.52
925.34	241.43
925.64	240.33
925.94	240.14
926.24	241.19
926.55	241.29
926.85	241.67
927.15	241.52
927.45	241.71
927.75	242.05
928.05	242.19
928.35	241.95
928.65	242.14
928.95	242.52
929.26	241.38
929.56	242.10
929.86	242.10
930.16	242.10
930.46	241.95
930.76	242.19
931.06	241.14
931.36	240.57
931.66	241.05
931.96	241.19
932.26	241.95
932.56	241.33
932.86	241.00
933.16	240.81
933.46	240.71
933.76	240.24
934.06	240.57
934.36	241.29
934.66	241.14
934.96	240.71
935.26	240.67
935.56	240.76
935.86	239.86
936.16	239.76
936.46	239.52
936.76	239.29
937.06	239.00
937.36	239.14
937.66	239.24
937.96	239.00
938.26	238.71
938.56	238.29
938.86	238.29
939.16	239.00
939.46	239.52
939.76	239.67
940.06	239.62
940.35	239.05
940.65	238.05
940.95	238.19
941.25	237.48
941.55	237.05
941.85	236.76
942.15	237.38
942.45	237.81
942.75	237.76
943.04	237.86
943.34	238.24
943.64	238.14
943.94	237.71
944.24	238.10
944.54	238.29
944.84	238.33
945.13	238.00
945.43	237.71
945.73	237.38
946.03	237.05
946.33	236.86
946.62	236.38
946.92	236.10
947.22	236.38
947.52	236.52
947.82	237.24
948.11	237.10
948.41	236.48
948.71	236.05
949.01	236.38
949.31	236.14
949.60	235.48
949.90	235.67
950.20	235.57
950.50	235.24
950.79	234.90
951.09	235.00
951.39	234.86
951.69	234.52
951.98	235.33
952.28	235.76
952.58	235.38
952.87	235.76
953.17	236.14
953.47	236.00
953.76	236.38
954.06	235.76
954.36	235.76
954.66	235.81
954.95	236.38
955.25	236.76
955.55	236.90
955.84	237.05
956.14	237.19
956.44	237.57
956.73	237.00
957.03	237.29
957.32	237.43
957.62	237.57
957.92	238.24
958.21	237.71
958.51	240.43
958.81	241.00
959.10	241.29
959.40	241.90
959.69	242.10
959.99	242.19
960.29	242.33
960.58	241.95
960.88	242.76
961.17	242.67
961.47	242.57
961.76	242.29
962.06	242.67
962.36	242.67
962.65	243.10
962.95	243.43
963.24	243.38
963.54	243.67
963.83	243.81
964.13	243.38
964.42	242.76
964.72	240.52
965.01	240.52
965.31	240.05
965.60	239.33
965.90	240.81
966.19	240.38
966.49	240.33
966.78	240.52
967.08	240.43
967.37	240.43
967.67	239.90
967.96	240.71
968.26	240.43
968.55	240.81
968.85	240.52
969.14	240.52
969.43	240.10
969.73	239.57
970.02	239.33
970.32	239.52
970.61	239.29
970.91	239.00
971.20	238.86
971.49	239.24
971.79	239.57
972.08	237.86
972.38	238.24
972.67	238.00
972.96	238.38
973.26	238.10
973.55	238.81
973.85	238.86
974.14	238.52
974.43	238.76
974.73	238.14
975.02	237.90
975.31	237.76
975.61	238.05
975.90	238.14
976.19	237.90
976.49	237.81
976.78	238.19
977.07	237.95
977.37	238.10
977.66	238.19
977.95	237.62
978.24	237.52
978.54	237.67
978.83	237.71
979.12	237.48
979.42	237.00
979.71	236.38
980.00	236.38
980.29	236.43
980.59	235.86
980.88	236.57
981.17	236.62
981.46	236.90
981.76	236.81
982.05	237.29
982.34	237.62
982.63	238.00
982.93	238.05
983.22	238.43
983.51	238.33
983.80	238.57
984.09	239.33
984.39	239.33
984.68	239.33
984.97	239.57
985.26	239.38
985.55	239.86
985.85	239.10
986.14	239.43
986.43	239.57
986.72	239.43
987.01	238.48
987.30	238.52
987.59	238.48
987.89	238.43
988.18	237.81
988.47	237.38
988.76	236.95
989.05	236.81
989.34	236.62
989.63	237.24
989.92	236.67
990.22	236.14
990.51	236.14
990.80	235.81
991.09	235.76
991.38	236.14
991.67	235.90
991.96	236.14
992.25	236.33
992.54	235.86
992.83	236.00
993.12	236.00
993.41	236.19
993.70	236.81
993.99	237.10
994.28	237.71
994.58	237.95
994.87	237.67
995.16	237.62
995.45	237.62
995.74	236.62
996.03	237.00
996.32	237.52
996.61	237.95
996.90	237.90
997.19	238.10
997.48	238.05
997.77	237.95
998.06	237.95
998.34	237.71
998.63	238.00
998.92	238.19
999.21	238.81
999.50	238.86
999.79	238.19
1000.08	238.43
1000.37	238.29
1000.66	238.43
1000.95	239.00
1001.24	239.14
1001.53	239.19
1001.82	239.38
1002.11	238.48
1002.40	238.52
1002.68	239.10
1002.97	241.33
1003.26	240.67
1003.55	240.29
1003.84	240.52
1004.13	241.33
1004.42	241.00
1004.71	241.00
1004.99	240.90
1005.28	240.90
1005.57	240.67
1005.86	240.52
1006.15	240.57
1006.44	240.10
1006.72	240.29
1007.01	239.90
1007.30	240.10
1007.59	240.10
1007.88	240.05
1008.17	240.48
1008.45	240.33
1008.74	239.33
1009.03	237.76
1009.32	238.05
1009.60	238.19
1009.89	237.81
1010.18	236.81
1010.47	236.57
1010.76	236.38
1011.04	236.38
1011.33	236.14
1011.62	236.10
1011.91	236.48
1012.19	236.10
1012.48	236.14
1012.77	236.24
1013.05	237.71
1013.34	237.43
1013.63	237.05
1013.92	237.43
1014.20	237.57
1014.49	237.43
1014.78	237.71
1015.06	236.95
1015.35	236.81
1015.64	237.24
1015.92	237.81
1016.21	238.14
1016.50	238.38
1016.78	238.71
1017.07	238.52
1017.36	238.86
1017.64	238.71
1017.93	238.67
1018.22	238.71
1018.50	238.81
1018.79	238.33
1019.08	236.76
1019.36	236.90
1019.65	237.10
1019.93	237.81
1020.22	238.10
1020.51	239.14
1020.79	238.90
1021.08	236.00
1021.36	234.00
1021.65	233.00
1021.94	234.00
1022.22	237.00
1022.51	238.00
1022.79	254.00
1023.08	242.00
1023.36	264.00
1023.65	234.00
>>>>>End Processed Spectral Data<<<<<
