SpectraSuite Data File
++++++++++++++++++++++++++++++++++++
Date: Wed Nov 07 18:31:57 EST 2012
User: group
Dark Spectrum Present: No
Reference Spectrum Present: No
Number of Sampled Component Spectra: 1
Spectrometers: USB2E7196
Integration Time (usec): 1000000 (USB2E7196)
Spectra Averaged: 1 (USB2E7196)
Boxcar Smoothing: 10 (USB2E7196)
Correct for Electrical Dark: No (USB2E7196)
Strobe/Lamp Enabled: No (USB2E7196)
Correct for Detector Non-linearity: No (USB2E7196)
Correct for Stray Light: No (USB2E7196)
Number of Pixels in Processed Spectrum: 2048
>>>>>Begin Processed Spectral Data<<<<<
339.09	0.00
339.48	223.00
339.86	222.00
340.24	225.00
340.63	221.00
341.01	258.00
341.39	223.00
341.78	224.00
342.16	241.00
342.54	235.00
342.93	223.38
343.31	234.29
343.69	234.62
344.07	235.00
344.46	235.62
344.84	236.33
345.22	235.14
345.60	235.90
345.99	236.43
346.37	236.19
346.75	235.95
347.13	236.00
347.52	235.95
347.90	236.52
348.28	236.62
348.66	237.05
349.05	235.67
349.43	235.90
349.81	236.48
350.19	236.62
350.57	235.95
350.96	235.95
351.34	236.24
351.72	236.57
352.10	236.67
352.48	236.29
352.87	236.10
353.25	236.14
353.63	235.71
354.01	235.52
354.39	235.67
354.77	236.10
355.15	236.86
355.54	236.71
355.92	236.05
356.30	236.24
356.68	237.57
357.06	237.81
357.44	237.38
357.82	236.76
358.20	237.05
358.58	237.24
358.97	237.33
359.35	237.76
359.73	238.48
360.11	238.90
360.49	239.33
360.87	239.48
361.25	239.86
361.63	241.10
362.01	241.86
362.39	241.62
362.77	241.57
363.15	241.57
363.53	241.71
363.91	242.10
364.29	241.90
364.67	240.00
365.05	240.29
365.43	240.90
365.81	241.71
366.19	243.00
366.57	244.24
366.95	244.10
367.33	243.81
367.71	243.43
368.09	243.71
368.47	243.76
368.85	243.81
369.23	244.57
369.61	243.67
369.99	244.24
370.37	245.00
370.75	246.19
371.13	245.90
371.51	245.52
371.89	245.67
372.27	246.10
372.65	246.10
373.03	246.38
373.41	245.81
373.78	245.62
374.16	243.95
374.54	243.00
374.92	243.05
375.30	242.86
375.68	242.62
376.06	242.71
376.44	242.33
376.82	242.62
377.19	242.14
377.57	241.81
377.95	241.19
378.33	240.62
378.71	239.33
379.09	239.19
379.47	239.81
379.84	239.57
380.22	239.76
380.60	239.43
380.98	239.10
381.36	239.57
381.73	239.24
382.11	240.10
382.49	240.24
382.87	240.24
383.25	240.71
383.62	243.24
384.00	242.43
384.38	242.90
384.76	243.43
385.13	244.48
385.51	244.90
385.89	244.33
386.27	244.52
386.64	245.05
387.02	244.71
387.40	244.38
387.78	244.57
388.15	244.38
388.53	244.43
388.91	244.57
389.29	244.00
389.66	244.43
390.04	243.90
390.42	244.57
390.79	244.29
391.17	244.10
391.55	241.38
391.92	241.33
392.30	241.38
392.68	240.71
393.05	240.52
393.43	240.48
393.81	240.71
394.18	240.33
394.56	240.38
394.94	241.19
395.31	240.95
395.69	241.62
396.06	241.86
396.44	242.29
396.82	242.00
397.19	243.48
397.57	243.19
397.95	243.76
398.32	242.95
398.70	243.29
399.07	243.67
399.45	243.90
399.82	244.33
400.20	244.10
400.58	244.10
400.95	243.14
401.33	243.71
401.70	245.43
402.08	245.62
402.45	245.48
402.83	246.14
403.20	246.24
403.58	246.19
403.95	246.71
404.33	247.05
404.71	247.57
405.08	248.86
405.46	249.24
405.83	249.33
406.21	249.57
406.58	249.90
406.96	250.10
407.33	250.62
407.70	251.33
408.08	253.67
408.45	254.81
408.83	256.00
409.20	256.14
409.58	255.48
409.95	256.57
410.33	257.33
410.70	257.57
411.08	258.81
411.45	259.52
411.82	260.24
412.20	262.05
412.57	264.76
412.95	264.10
413.32	265.67
413.69	267.00
414.07	269.00
414.44	271.33
414.82	273.71
415.19	276.14
415.56	278.29
415.94	279.62
416.31	282.57
416.68	285.29
417.06	288.81
417.43	292.81
417.81	296.62
418.18	300.90
418.55	304.67
418.93	309.24
419.30	313.62
419.67	318.24
420.04	322.33
420.42	326.76
420.79	334.57
421.16	340.48
421.54	347.95
421.91	354.05
422.28	360.43
422.66	366.90
423.03	375.52
423.40	382.76
423.77	390.14
424.15	397.33
424.52	404.81
424.89	414.24
425.26	421.19
425.64	428.48
426.01	436.76
426.38	445.24
426.75	454.86
427.13	463.62
427.50	473.10
427.87	483.43
428.24	492.52
428.61	500.14
428.99	512.10
429.36	522.29
429.73	533.38
430.10	544.10
430.47	556.29
430.85	566.67
431.22	579.43
431.59	594.33
431.96	607.19
432.33	622.05
432.70	635.43
433.08	652.19
433.45	667.86
433.82	683.29
434.19	700.38
434.56	715.67
434.93	732.00
435.30	747.24
435.68	764.81
436.05	781.86
436.42	798.48
436.79	813.57
437.16	830.14
437.53	847.90
437.90	865.62
438.27	882.67
438.64	899.43
439.01	914.90
439.38	927.81
439.75	940.90
440.13	955.62
440.50	969.62
440.87	981.10
441.24	992.71
441.61	1005.62
441.98	1014.62
442.35	1025.81
442.72	1036.62
443.09	1049.62
443.46	1054.38
443.83	1058.67
444.20	1061.48
444.57	1064.67
444.94	1066.00
445.31	1066.43
445.68	1070.48
446.05	1069.57
446.42	1066.10
446.79	1063.86
447.16	1059.52
447.53	1057.81
447.90	1049.71
448.27	1041.81
448.64	1031.62
449.01	1024.29
449.37	1010.90
449.74	998.76
450.11	988.14
450.48	972.67
450.85	954.67
451.22	941.90
451.59	929.43
451.96	917.19
452.33	902.33
452.70	887.71
453.07	872.76
453.43	852.81
453.80	836.57
454.17	821.48
454.54	805.76
454.91	790.52
455.28	773.43
455.65	759.00
456.02	748.90
456.38	736.76
456.75	722.10
457.12	710.24
457.49	698.48
457.86	683.14
458.23	673.86
458.59	663.62
458.96	652.10
459.33	641.33
459.70	631.95
460.07	623.67
460.43	614.76
460.80	605.05
461.17	597.33
461.54	589.48
461.91	581.38
462.27	574.00
462.64	566.95
463.01	560.81
463.38	555.81
463.74	544.33
464.11	537.67
464.48	532.48
464.85	526.38
465.21	522.52
465.58	518.62
465.95	512.33
466.32	507.76
466.68	503.57
467.05	499.05
467.42	494.43
467.78	489.24
468.15	484.43
468.52	481.76
468.88	477.19
469.25	473.19
469.62	470.48
469.98	466.95
470.35	463.48
470.72	460.29
471.08	455.71
471.45	453.67
471.82	452.48
472.18	448.67
472.55	446.52
472.92	443.52
473.28	440.81
473.65	437.90
474.02	435.05
474.38	433.00
474.75	431.52
475.11	429.43
475.48	428.57
475.85	427.57
476.21	425.52
476.58	424.76
476.94	423.38
477.31	422.05
477.67	420.95
478.04	420.38
478.41	419.86
478.77	421.48
479.14	420.19
479.50	418.71
479.87	418.52
480.23	418.38
480.60	417.81
480.96	417.67
481.33	419.19
481.69	419.86
482.06	420.19
482.42	420.71
482.79	422.14
483.15	422.14
483.52	424.10
483.88	425.05
484.25	425.71
484.61	426.71
484.98	427.86
485.34	429.90
485.71	431.67
486.07	432.52
486.44	431.48
486.80	433.19
487.17	434.81
487.53	437.24
487.90	439.24
488.26	441.90
488.62	444.38
488.99	445.52
489.35	447.95
489.72	449.71
490.08	451.71
490.44	452.95
490.81	455.81
491.17	456.86
491.54	459.24
491.90	462.24
492.26	464.71
492.63	467.00
492.99	468.62
493.36	471.29
493.72	475.29
494.08	478.24
494.45	481.00
494.81	484.10
495.17	487.29
495.54	490.76
495.90	493.14
496.26	495.90
496.63	500.00
496.99	503.57
497.35	507.67
497.72	511.57
498.08	515.76
498.44	519.62
498.80	524.05
499.17	528.24
499.53	532.19
499.89	537.33
500.26	542.38
500.62	547.14
500.98	551.95
501.34	555.62
501.71	560.95
502.07	566.29
502.43	570.81
502.79	574.62
503.16	579.86
503.52	585.24
503.88	589.81
504.24	594.90
504.60	600.05
504.97	605.38
505.33	610.33
505.69	616.81
506.05	621.90
506.41	627.62
506.78	631.52
507.14	636.67
507.50	641.62
507.86	647.10
508.22	652.95
508.59	658.43
508.95	664.33
509.31	670.29
509.67	676.05
510.03	681.81
510.39	687.19
510.75	691.95
511.12	697.52
511.48	703.19
511.84	708.00
512.20	712.62
512.56	717.67
512.92	723.19
513.28	726.86
513.64	731.14
514.00	735.62
514.37	741.57
514.73	746.33
515.09	751.00
515.45	754.48
515.81	758.10
516.17	761.71
516.53	765.10
516.89	768.33
517.25	772.10
517.61	776.29
517.97	780.43
518.33	784.90
518.69	788.71
519.05	792.52
519.41	796.71
519.77	801.57
520.13	804.57
520.49	807.52
520.85	810.57
521.21	815.43
521.57	818.05
521.93	819.71
522.29	822.52
522.65	824.95
523.01	828.00
523.37	830.76
523.73	832.95
524.09	835.67
524.45	838.05
524.81	839.76
525.17	841.76
525.53	843.38
525.89	844.38
526.25	845.62
526.61	846.95
526.97	847.67
527.33	847.95
527.68	851.19
528.04	851.95
528.40	853.14
528.76	853.29
529.12	855.00
529.48	857.33
529.84	857.71
530.20	859.24
530.56	861.86
530.91	863.71
531.27	865.33
531.63	866.29
531.99	866.29
532.35	867.43
532.71	868.71
533.07	870.29
533.42	874.14
533.78	874.76
534.14	876.29
534.50	877.95
534.86	879.95
535.21	879.24
535.57	881.81
535.93	882.48
536.29	884.95
536.65	886.29
537.00	887.95
537.36	889.90
537.72	891.57
538.08	892.24
538.44	893.90
538.79	896.29
539.15	898.24
539.51	901.38
539.87	903.90
540.22	906.33
540.58	908.52
540.94	908.10
541.29	910.76
541.65	911.81
542.01	913.71
542.37	914.33
542.72	915.24
543.08	915.05
543.44	915.62
543.79	913.29
544.15	913.57
544.51	913.05
544.87	912.43
545.22	911.52
545.58	910.38
545.94	907.52
546.29	905.57
546.65	904.05
547.01	900.76
547.36	897.29
547.72	893.48
548.07	891.62
548.43	888.43
548.79	885.00
549.14	882.71
549.50	879.81
549.86	876.67
550.21	874.57
550.57	872.29
550.92	869.81
551.28	869.52
551.64	866.14
551.99	863.52
552.35	861.14
552.70	857.76
553.06	855.43
553.41	853.71
553.77	853.14
554.13	850.76
554.48	849.38
554.84	848.24
555.19	846.81
555.55	845.71
555.90	845.05
556.26	843.57
556.61	840.38
556.97	837.76
557.32	836.14
557.68	834.05
558.03	831.62
558.39	829.95
558.74	827.62
559.10	826.05
559.45	824.57
559.81	822.62
560.16	821.71
560.52	820.10
560.87	818.62
561.23	815.33
561.58	815.00
561.94	813.76
562.29	812.24
562.64	810.62
563.00	807.76
563.35	804.90
563.71	802.33
564.06	801.52
564.42	800.19
564.77	798.33
565.12	796.29
565.48	797.76
565.83	797.05
566.19	795.24
566.54	793.52
566.89	791.86
567.25	791.29
567.60	790.52
567.96	791.24
568.31	791.62
568.66	791.14
569.02	788.24
569.37	786.48
569.72	784.05
570.08	782.52
570.43	781.38
570.78	780.57
571.14	779.95
571.49	779.24
571.84	777.33
572.20	776.62
572.55	775.95
572.90	771.67
573.26	770.19
573.61	768.33
573.96	767.43
574.31	766.43
574.67	765.57
575.02	763.43
575.37	760.52
575.72	757.33
576.08	755.24
576.43	754.48
576.78	753.19
577.13	752.24
577.49	750.90
577.84	749.00
578.19	746.95
578.54	745.38
578.90	743.33
579.25	742.38
579.60	740.90
579.95	739.14
580.30	738.38
580.66	736.90
581.01	736.05
581.36	734.71
581.71	733.57
582.06	732.57
582.42	731.67
582.77	730.38
583.12	729.38
583.47	728.19
583.82	726.33
584.17	725.10
584.53	724.81
584.88	722.81
585.23	722.14
585.58	720.52
585.93	718.76
586.28	717.19
586.63	715.71
586.98	713.52
587.34	711.86
587.69	709.38
588.04	707.14
588.39	705.19
588.74	702.24
589.09	699.62
589.44	695.05
589.79	691.90
590.14	687.62
590.49	684.24
590.84	680.33
591.19	676.95
591.54	673.38
591.89	669.00
592.25	667.95
592.60	663.48
592.95	660.19
593.30	657.76
593.65	654.43
594.00	651.14
594.35	654.57
594.70	650.81
595.05	647.90
595.40	645.00
595.75	641.67
596.10	639.33
596.45	636.52
596.80	635.10
597.15	632.24
597.50	630.19
597.85	629.38
598.19	627.14
598.54	625.05
598.89	622.48
599.24	620.52
599.59	616.86
599.94	614.33
600.29	612.43
600.64	609.48
600.99	608.29
601.34	605.95
601.69	597.29
602.04	595.52
602.39	592.57
602.74	590.48
603.08	588.48
603.43	587.48
603.78	585.43
604.13	582.76
604.48	581.00
604.83	580.19
605.18	578.10
605.53	578.29
605.87	579.57
606.22	582.05
606.57	585.57
606.92	589.43
607.27	594.62
607.62	599.29
607.96	604.71
608.31	607.52
608.66	611.67
609.01	614.24
609.36	617.67
609.70	621.43
610.05	623.81
610.40	626.48
610.75	627.57
611.10	629.24
611.44	630.57
611.79	631.05
612.14	630.81
612.49	629.43
612.83	626.67
613.18	623.10
613.53	618.24
613.88	612.00
614.22	604.86
614.57	597.38
614.92	589.24
615.27	581.57
615.61	575.10
615.96	568.00
616.31	561.57
616.65	555.43
617.00	549.29
617.35	543.33
617.70	537.48
618.04	531.81
618.39	526.90
618.74	522.43
619.08	518.76
619.43	515.14
619.78	511.43
620.12	508.81
620.47	505.95
620.82	503.19
621.16	500.10
621.51	498.95
621.85	496.38
622.20	495.05
622.55	492.24
622.89	489.62
623.24	487.76
623.59	485.71
623.93	483.81
624.28	481.71
624.62	482.81
624.97	482.43
625.32	480.71
625.66	478.81
626.01	477.43
626.35	475.52
626.70	473.71
627.04	472.57
627.39	471.00
627.73	469.95
628.08	468.38
628.43	466.90
628.77	463.62
629.12	461.43
629.46	459.43
629.81	457.33
630.15	455.05
630.50	452.43
630.84	451.00
631.19	448.33
631.53	445.90
631.88	440.76
632.22	436.76
632.57	435.57
632.91	433.00
633.26	430.62
633.60	428.33
633.95	426.05
634.29	423.00
634.64	420.43
634.98	417.19
635.32	415.14
635.67	413.19
636.01	411.14
636.36	409.19
636.70	407.33
637.05	405.38
637.39	403.67
637.73	402.19
638.08	401.24
638.42	399.33
638.77	398.24
639.11	396.71
639.45	394.76
639.80	392.29
640.14	391.19
640.49	389.10
640.83	387.57
641.17	386.62
641.52	385.57
641.86	384.14
642.20	383.86
642.55	382.10
642.89	380.90
643.23	379.90
643.58	379.90
643.92	378.14
644.26	377.86
644.61	377.48
644.95	376.57
645.29	374.71
645.64	374.90
645.98	373.81
646.32	373.67
646.66	373.00
647.01	372.67
647.35	371.86
647.69	371.43
648.04	370.43
648.38	369.24
648.72	368.71
649.06	367.86
649.41	366.10
649.75	365.24
650.09	364.71
650.43	363.52
650.78	361.38
651.12	360.19
651.46	358.57
651.80	357.33
652.14	355.67
652.49	355.19
652.83	353.10
653.17	351.81
653.51	349.86
653.85	349.05
654.20	347.43
654.54	345.95
654.88	344.24
655.22	342.81
655.56	341.05
655.90	339.52
656.25	338.52
656.59	337.81
656.93	336.95
657.27	336.19
657.61	335.05
657.95	334.76
658.29	333.95
658.64	333.86
658.98	333.10
659.32	332.57
659.66	331.29
660.00	331.05
660.34	330.86
660.68	330.48
661.02	330.14
661.36	329.48
661.70	328.81
662.05	328.62
662.39	329.29
662.73	329.48
663.07	330.29
663.41	329.86
663.75	328.81
664.09	328.38
664.43	327.00
664.77	326.43
665.11	325.24
665.45	324.86
665.79	324.24
666.13	322.95
666.47	322.05
666.81	321.76
667.15	320.52
667.49	319.57
667.83	319.67
668.17	318.62
668.51	318.19
668.85	317.71
669.19	318.24
669.53	316.76
669.87	315.67
670.21	314.71
670.55	314.14
670.89	315.14
671.23	314.57
671.57	314.24
671.91	314.19
672.25	313.90
672.58	314.14
672.92	312.86
673.26	312.48
673.60	312.24
673.94	311.10
674.28	311.00
674.62	310.81
674.96	309.24
675.30	308.90
675.64	308.10
675.97	307.90
676.31	306.76
676.65	306.14
676.99	306.29
677.33	304.90
677.67	304.57
678.01	302.48
678.34	302.19
678.68	301.76
679.02	301.24
679.36	300.57
679.70	299.43
680.04	299.00
680.37	298.57
680.71	297.86
681.05	297.81
681.39	297.33
681.73	296.43
682.06	296.48
682.40	295.86
682.74	296.14
683.08	296.48
683.42	295.43
683.75	295.57
684.09	294.67
684.43	294.67
684.77	293.86
685.10	293.81
685.44	293.48
685.78	293.14
686.12	292.48
686.45	292.33
686.79	292.10
687.13	292.00
687.46	291.67
687.80	291.81
688.14	291.14
688.48	291.14
688.81	291.14
689.15	291.38
689.49	291.14
689.82	290.57
690.16	289.10
690.50	288.57
690.83	287.86
691.17	287.00
691.51	286.62
691.84	286.62
692.18	285.95
692.52	285.14
692.85	284.86
693.19	285.29
693.52	284.43
693.86	283.48
694.20	283.14
694.53	282.86
694.87	282.43
695.21	282.14
695.54	281.62
695.88	280.76
696.21	279.62
696.55	279.19
696.88	278.52
697.22	278.10
697.56	278.62
697.89	278.05
698.23	278.38
698.56	277.52
698.90	277.48
699.23	277.00
699.57	276.95
699.90	276.14
700.24	275.14
700.58	275.43
700.91	276.10
701.25	278.00
701.58	278.81
701.92	279.24
702.25	279.57
702.59	279.19
702.92	279.76
703.26	280.29
703.59	280.95
703.93	283.29
704.26	284.29
704.60	284.95
704.93	285.19
705.26	285.24
705.60	286.14
705.93	285.67
706.27	287.19
706.60	288.00
706.94	289.90
707.27	290.14
707.61	290.33
707.94	290.10
708.27	288.43
708.61	287.67
708.94	287.43
709.28	286.76
709.61	286.52
709.94	286.10
710.28	285.57
710.61	285.00
710.95	282.05
711.28	282.48
711.61	281.00
711.95	281.00
712.28	279.71
712.61	279.00
712.95	279.90
713.28	280.05
713.61	278.86
713.95	277.10
714.28	276.38
714.61	275.33
714.95	274.24
715.28	273.19
715.61	272.48
715.95	271.81
716.28	271.48
716.61	271.38
716.95	270.90
717.28	270.10
717.61	269.67
717.94	269.33
718.28	267.33
718.61	266.90
718.94	265.76
719.27	265.81
719.61	265.38
719.94	264.19
720.27	262.38
720.60	262.10
720.94	261.52
721.27	261.57
721.60	262.00
721.93	262.14
722.27	262.29
722.60	262.24
722.93	261.33
723.26	261.33
723.59	260.62
723.93	260.52
724.26	260.62
724.59	260.14
724.92	259.90
725.25	260.48
725.59	260.43
725.92	260.81
726.25	261.10
726.58	261.00
726.91	260.67
727.24	261.00
727.57	260.57
727.91	260.24
728.24	260.10
728.57	259.38
728.90	259.52
729.23	258.95
729.56	259.86
729.89	259.86
730.22	259.67
730.55	259.24
730.89	259.00
731.22	258.90
731.55	258.29
731.88	258.62
732.21	257.52
732.54	256.76
732.87	256.57
733.20	256.19
733.53	256.14
733.86	256.14
734.19	255.29
734.52	255.67
734.85	257.29
735.18	256.95
735.51	257.48
735.84	257.29
736.17	257.62
736.50	256.38
736.83	259.52
737.16	259.24
737.49	259.76
737.82	259.76
738.15	259.76
738.48	259.67
738.81	259.33
739.14	259.38
739.47	259.90
739.80	260.00
740.13	259.86
740.46	259.33
740.79	258.81
741.12	258.95
741.45	258.62
741.78	257.52
742.11	257.90
742.44	257.24
742.77	257.76
743.10	257.43
743.43	257.43
743.75	254.52
744.08	257.81
744.41	257.48
744.74	257.10
745.07	256.48
745.40	257.05
745.73	258.00
746.06	257.90
746.39	257.86
746.71	257.43
747.04	257.00
747.37	256.67
747.70	257.29
748.03	257.43
748.36	257.48
748.68	257.05
749.01	256.14
749.34	256.14
749.67	255.67
750.00	255.95
750.33	257.76
750.65	258.14
750.98	254.52
751.31	254.43
751.64	254.67
751.97	256.00
752.29	255.81
752.62	254.52
752.95	254.62
753.28	254.33
753.60	254.19
753.93	254.81
754.26	255.24
754.59	254.29
754.91	253.81
755.24	253.38
755.57	253.05
755.90	253.10
756.22	253.00
756.55	252.43
756.88	252.14
757.20	250.33
757.53	249.43
757.86	249.81
758.19	250.10
758.51	249.81
758.84	248.57
759.17	248.33
759.49	248.67
759.82	249.43
760.15	249.48
760.47	249.10
760.80	248.57
761.13	248.86
761.45	249.00
761.78	249.10
762.11	249.29
762.43	249.29
762.76	249.19
763.08	249.48
763.41	250.00
763.74	249.81
764.06	249.76
764.39	249.71
764.71	249.33
765.04	248.95
765.37	248.67
765.69	248.67
766.02	248.33
766.34	247.67
766.67	247.05
767.00	247.43
767.32	249.05
767.65	250.29
767.97	250.19
768.30	250.43
768.62	250.29
768.95	249.95
769.27	249.95
769.60	250.33
769.92	249.81
770.25	249.29
770.57	248.86
770.90	248.48
771.22	248.33
771.55	248.57
771.87	248.76
772.20	248.86
772.52	251.14
772.85	254.24
773.17	254.57
773.50	254.10
773.82	253.67
774.15	252.00
774.47	250.43
774.80	250.24
775.12	249.86
775.45	249.86
775.77	250.19
776.09	250.24
776.42	250.29
776.74	251.00
777.07	250.43
777.39	250.48
777.72	250.29
778.04	250.67
778.36	250.33
778.69	250.19
779.01	250.14
779.33	247.67
779.66	244.76
779.98	244.38
780.31	244.52
780.63	245.57
780.95	246.33
781.28	246.38
781.60	245.81
781.92	245.71
782.25	245.62
782.57	245.48
782.89	245.10
783.22	244.86
783.54	244.14
783.86	244.62
784.19	244.29
784.51	244.95
784.83	244.67
785.16	244.38
785.48	244.33
785.80	244.29
786.12	244.57
786.45	244.71
786.77	245.19
787.09	245.10
787.42	244.19
787.74	244.24
788.06	244.29
788.38	244.38
788.71	244.19
789.03	243.95
789.35	243.86
789.67	243.52
789.99	243.67
790.32	243.29
790.64	243.43
790.96	245.57
791.28	244.81
791.61	244.24
791.93	244.38
792.25	244.14
792.57	245.95
792.89	245.29
793.21	245.05
793.54	244.52
793.86	244.19
794.18	244.14
794.50	243.48
794.82	243.76
795.14	244.14
795.47	244.67
795.79	244.86
796.11	244.81
796.43	245.19
796.75	245.33
797.07	245.81
797.39	245.76
797.71	243.86
798.04	243.86
798.36	244.10
798.68	244.33
799.00	244.57
799.32	243.29
799.64	243.62
799.96	243.90
800.28	244.48
800.60	244.52
800.92	244.62
801.24	244.57
801.56	244.57
801.89	244.43
802.21	244.33
802.53	244.00
802.85	244.33
803.17	245.19
803.49	244.67
803.81	244.48
804.13	244.29
804.45	244.24
804.77	244.29
805.09	244.43
805.41	243.86
805.73	243.38
806.05	242.86
806.37	243.19
806.69	243.10
807.01	242.90
807.33	243.10
807.65	242.38
807.97	243.57
808.28	243.24
808.60	242.90
808.92	242.62
809.24	244.24
809.56	243.81
809.88	243.14
810.20	243.05
810.52	243.43
810.84	243.00
811.16	242.52
811.48	242.57
811.80	243.62
812.12	243.67
812.43	244.10
812.75	244.10
813.07	243.57
813.39	243.48
813.71	243.19
814.03	242.76
814.35	242.43
814.67	241.19
814.98	241.10
815.30	240.95
815.62	240.71
815.94	239.05
816.26	239.95
816.58	239.24
816.89	239.62
817.21	239.00
817.53	239.24
817.85	239.71
818.17	239.86
818.48	238.48
818.80	239.00
819.12	239.00
819.44	238.62
819.76	238.67
820.07	238.81
820.39	239.00
820.71	239.48
821.03	239.81
821.34	240.05
821.66	240.57
821.98	240.62
822.30	240.57
822.61	241.90
822.93	241.05
823.25	241.00
823.57	240.62
823.88	241.19
824.20	241.24
824.52	241.67
824.83	241.52
825.15	241.48
825.47	241.43
825.79	241.62
826.10	241.76
826.42	241.57
826.74	241.76
827.05	241.38
827.37	241.19
827.69	241.52
828.00	241.33
828.32	240.90
828.64	241.00
828.95	242.52
829.27	241.95
829.58	241.76
829.90	242.33
830.22	242.38
830.53	241.90
830.85	241.90
831.17	241.10
831.48	241.14
831.80	241.24
832.11	241.00
832.43	240.67
832.75	240.71
833.06	242.19
833.38	241.43
833.69	241.19
834.01	241.29
834.32	241.14
834.64	241.10
834.96	241.38
835.27	241.14
835.59	240.38
835.90	240.14
836.22	240.10
836.53	239.57
836.85	239.57
837.16	242.05
837.48	242.05
837.79	243.19
838.11	243.19
838.42	243.38
838.74	243.62
839.05	243.29
839.37	243.10
839.68	241.52
840.00	241.10
840.31	241.43
840.63	241.43
840.94	241.10
841.26	240.90
841.57	240.62
841.88	241.05
842.20	240.48
842.51	240.10
842.83	240.10
843.14	242.24
843.46	242.10
843.77	240.48
844.08	240.38
844.40	239.76
844.71	239.48
845.03	239.38
845.34	239.19
845.65	239.10
845.97	239.05
846.28	239.29
846.60	239.90
846.91	239.90
847.22	239.71
847.54	240.33
847.85	240.43
848.16	240.48
848.48	240.10
848.79	241.29
849.10	241.48
849.42	241.67
849.73	239.67
850.04	239.57
850.36	238.81
850.67	239.14
850.98	238.81
851.30	239.14
851.61	238.81
851.92	239.00
852.23	239.95
852.55	240.10
852.86	239.95
853.17	240.05
853.49	240.52
853.80	241.05
854.11	240.95
854.42	241.29
854.74	241.05
855.05	241.00
855.36	239.43
855.67	239.57
855.99	239.71
856.30	242.48
856.61	242.48
856.92	243.05
857.23	242.90
857.55	242.86
857.86	242.52
858.17	243.29
858.48	242.62
858.79	242.29
859.11	242.95
859.42	242.90
859.73	242.62
860.04	242.33
860.35	241.62
860.66	241.29
860.98	241.10
861.29	241.43
861.60	241.52
861.91	242.38
862.22	242.00
862.53	241.57
862.84	238.90
863.16	239.76
863.47	238.90
863.78	238.57
864.09	238.24
864.40	238.48
864.71	238.33
865.02	238.81
865.33	238.29
865.64	237.33
865.95	237.33
866.27	239.00
866.58	238.76
866.89	239.10
867.20	238.57
867.51	238.29
867.82	238.33
868.13	239.10
868.44	238.52
868.75	238.95
869.06	239.05
869.37	239.00
869.68	238.24
869.99	238.52
870.30	238.81
870.61	239.71
870.92	239.38
871.23	239.00
871.54	239.43
871.85	240.14
872.16	240.57
872.47	240.43
872.78	238.76
873.09	239.05
873.40	238.71
873.71	239.33
874.02	239.62
874.33	239.19
874.64	238.43
874.95	238.57
875.26	237.95
875.56	238.29
875.87	238.38
876.18	238.24
876.49	240.38
876.80	240.38
877.11	239.71
877.42	239.90
877.73	240.10
878.04	239.90
878.35	239.76
878.66	240.00
878.96	240.14
879.27	240.14
879.58	240.14
879.89	240.19
880.20	240.62
880.51	240.43
880.82	240.43
881.12	240.48
881.43	240.29
881.74	240.29
882.05	239.76
882.36	239.81
882.67	239.86
882.97	237.67
883.28	237.29
883.59	237.24
883.90	237.52
884.21	237.76
884.51	237.38
884.82	237.10
885.13	237.05
885.44	236.86
885.74	236.76
886.05	236.71
886.36	236.57
886.67	235.48
886.98	236.71
887.28	237.10
887.59	237.24
887.90	237.52
888.20	237.24
888.51	237.76
888.82	237.33
889.13	237.52
889.43	239.57
889.74	239.57
890.05	239.71
890.35	239.57
890.66	239.14
890.97	239.14
891.28	238.81
891.58	238.48
891.89	238.67
892.20	238.57
892.50	238.14
892.81	238.10
893.12	238.71
893.42	237.19
893.73	237.00
894.04	237.10
894.34	236.95
894.65	237.33
894.95	236.95
895.26	237.14
895.57	238.24
895.87	235.95
896.18	236.43
896.48	236.52
896.79	236.52
897.10	237.05
897.40	236.62
897.71	237.19
898.01	237.29
898.32	237.48
898.63	237.38
898.93	237.86
899.24	238.05
899.54	237.57
899.85	238.05
900.15	237.95
900.46	237.67
900.76	238.38
901.07	238.05
901.38	237.95
901.68	238.14
901.99	236.95
902.29	237.05
902.60	236.71
902.90	236.43
903.21	236.14
903.51	235.90
903.82	236.90
904.12	236.90
904.43	236.86
904.73	236.95
905.03	237.29
905.34	239.71
905.64	239.38
905.95	239.67
906.25	239.43
906.56	239.57
906.86	239.86
907.17	239.24
907.47	239.62
907.77	239.24
908.08	238.76
908.38	239.29
908.69	239.48
908.99	240.10
909.30	240.67
909.60	240.81
909.90	241.38
910.21	240.57
910.51	240.10
910.81	240.29
911.12	240.24
911.42	240.52
911.73	237.76
912.03	238.33
912.33	238.95
912.64	239.00
912.94	238.76
913.24	238.43
913.55	238.38
913.85	238.33
914.15	239.29
914.46	239.76
914.76	239.19
915.06	239.05
915.37	238.38
915.67	237.86
915.97	238.33
916.27	237.29
916.58	237.38
916.88	237.33
917.18	237.19
917.49	238.62
917.79	238.38
918.09	238.76
918.39	239.43
918.70	239.29
919.00	239.24
919.30	240.62
919.60	240.33
919.91	239.81
920.21	239.86
920.51	239.19
920.81	238.95
921.12	239.62
921.42	239.48
921.72	240.14
922.02	240.48
922.32	240.48
922.63	240.52
922.93	241.76
923.23	241.95
923.53	241.52
923.83	240.10
924.13	240.43
924.44	240.29
924.74	240.33
925.04	240.76
925.34	240.81
925.64	239.62
925.94	239.90
926.24	241.57
926.55	241.24
926.85	241.57
927.15	241.57
927.45	241.29
927.75	241.38
928.05	241.19
928.35	240.81
928.65	241.10
928.95	241.48
929.26	240.86
929.56	241.29
929.86	241.86
930.16	241.95
930.46	241.71
930.76	241.76
931.06	241.10
931.36	240.43
931.66	240.71
931.96	240.81
932.26	240.76
932.56	239.43
932.86	239.62
933.16	239.62
933.46	239.57
933.76	238.90
934.06	239.86
934.36	240.62
934.66	240.43
934.96	239.86
935.26	240.10
935.56	239.95
935.86	239.19
936.16	238.90
936.46	238.52
936.76	238.38
937.06	238.43
937.36	238.38
937.66	238.24
937.96	238.29
938.26	237.95
938.56	238.05
938.86	238.62
939.16	239.10
939.46	239.29
939.76	239.48
940.06	239.90
940.35	239.19
940.65	237.90
940.95	238.29
941.25	237.52
941.55	237.29
941.85	237.29
942.15	238.00
942.45	238.76
942.75	238.71
943.04	238.52
943.34	238.76
943.64	238.48
943.94	238.33
944.24	238.10
944.54	238.29
944.84	238.14
945.13	237.67
945.43	237.71
945.73	237.81
946.03	237.90
946.33	237.76
946.62	237.67
946.92	238.00
947.22	238.19
947.52	238.86
947.82	239.00
948.11	238.86
948.41	238.48
948.71	237.76
949.01	237.76
949.31	237.67
949.60	237.24
949.90	237.71
950.20	237.76
950.50	237.71
950.79	237.57
951.09	237.95
951.39	238.19
951.69	237.52
951.98	238.00
952.28	237.76
952.58	237.57
952.87	237.38
953.17	237.57
953.47	237.33
953.76	237.38
954.06	236.86
954.36	236.62
954.66	236.43
954.95	237.14
955.25	237.67
955.55	238.24
955.84	238.19
956.14	238.57
956.44	238.52
956.73	238.43
957.03	238.48
957.32	238.19
957.62	237.67
957.92	238.10
958.21	237.62
958.51	240.81
958.81	241.24
959.10	241.38
959.40	241.86
959.69	241.86
959.99	242.33
960.29	242.62
960.58	242.48
960.88	243.19
961.17	242.90
961.47	242.95
961.76	242.52
962.06	242.86
962.36	242.19
962.65	242.43
962.95	242.76
963.24	242.52
963.54	243.05
963.83	243.62
964.13	243.67
964.42	243.19
964.72	240.62
965.01	240.57
965.31	240.57
965.60	239.71
965.90	241.38
966.19	240.67
966.49	240.76
966.78	240.81
967.08	240.67
967.37	240.67
967.67	240.29
967.96	240.86
968.26	240.76
968.55	241.19
968.85	241.05
969.14	240.76
969.43	240.95
969.73	240.71
970.02	240.33
970.32	240.19
970.61	240.24
970.91	239.48
971.20	239.24
971.49	238.76
971.79	239.48
972.08	237.81
972.38	237.76
972.67	237.90
972.96	238.14
973.26	237.90
973.55	238.62
973.85	238.38
974.14	237.95
974.43	238.24
974.73	238.14
975.02	237.71
975.31	237.86
975.61	237.76
975.90	237.33
976.19	237.33
976.49	237.62
976.78	237.57
977.07	238.10
977.37	238.19
977.66	238.81
977.95	237.71
978.24	237.67
978.54	238.19
978.83	238.05
979.12	237.81
979.42	237.48
979.71	236.95
980.00	236.95
980.29	237.10
980.59	236.48
980.88	236.95
981.17	237.29
981.46	237.14
981.76	237.14
982.05	237.76
982.34	238.00
982.63	237.95
982.93	238.10
983.22	238.71
983.51	238.71
983.80	238.67
984.09	239.43
984.39	239.33
984.68	239.14
984.97	238.90
985.26	238.81
985.55	239.14
985.85	238.43
986.14	238.81
986.43	239.14
986.72	238.95
987.01	237.86
987.30	237.81
987.59	237.76
987.89	238.00
988.18	237.29
988.47	236.76
988.76	236.62
989.05	236.43
989.34	235.67
989.63	236.62
989.92	236.62
990.22	236.24
990.51	236.29
990.80	235.90
991.09	236.33
991.38	236.38
991.67	236.43
991.96	236.29
992.25	236.24
992.54	235.86
992.83	235.95
993.12	236.10
993.41	236.86
993.70	238.10
993.99	238.38
994.28	239.10
994.58	239.76
994.87	239.48
995.16	239.52
995.45	239.90
995.74	238.90
996.03	239.48
996.32	240.14
996.61	240.48
996.90	240.81
997.19	240.48
997.48	241.10
997.77	240.86
998.06	241.19
998.34	241.48
998.63	241.67
998.92	242.19
999.21	242.67
999.50	242.19
999.79	241.29
1000.08	241.29
1000.37	241.24
1000.66	241.10
1000.95	241.81
1001.24	241.86
1001.53	241.95
1001.82	242.05
1002.11	241.29
1002.40	241.38
1002.68	242.10
1002.97	243.90
1003.26	243.81
1003.55	243.24
1003.84	243.29
1004.13	244.10
1004.42	243.76
1004.71	243.71
1004.99	243.76
1005.28	243.95
1005.57	243.90
1005.86	243.76
1006.15	243.52
1006.44	243.00
1006.72	243.24
1007.01	242.90
1007.30	243.05
1007.59	242.62
1007.88	242.71
1008.17	242.90
1008.45	242.19
1008.74	241.48
1009.03	240.48
1009.32	240.48
1009.60	240.57
1009.89	240.29
1010.18	239.19
1010.47	238.62
1010.76	238.38
1011.04	237.86
1011.33	237.81
1011.62	237.81
1011.91	237.76
1012.19	237.81
1012.48	237.90
1012.77	237.76
1013.05	239.05
1013.34	239.00
1013.63	239.00
1013.92	239.14
1014.20	239.05
1014.49	239.29
1014.78	239.19
1015.06	238.24
1015.35	238.33
1015.64	238.48
1015.92	239.10
1016.21	239.38
1016.50	239.86
1016.78	240.14
1017.07	240.67
1017.36	240.71
1017.64	240.48
1017.93	241.14
1018.22	240.86
1018.50	240.71
1018.79	240.62
1019.08	239.24
1019.36	239.38
1019.65	239.10
1019.93	239.43
1020.22	239.67
1020.51	240.95
1020.79	241.00
1021.08	233.00
1021.36	231.00
1021.65	240.00
1021.94	239.00
1022.22	241.00
1022.51	233.00
1022.79	249.00
1023.08	242.00
1023.36	269.00
1023.65	239.00
>>>>>End Processed Spectral Data<<<<<
