SpectraSuite Data File
++++++++++++++++++++++++++++++++++++
Date: Wed Nov 07 18:31:33 EST 2012
User: group
Dark Spectrum Present: No
Reference Spectrum Present: No
Number of Sampled Component Spectra: 1
Spectrometers: USB2E7196
Integration Time (usec): 1000000 (USB2E7196)
Spectra Averaged: 1 (USB2E7196)
Boxcar Smoothing: 10 (USB2E7196)
Correct for Electrical Dark: No (USB2E7196)
Strobe/Lamp Enabled: No (USB2E7196)
Correct for Detector Non-linearity: No (USB2E7196)
Correct for Stray Light: No (USB2E7196)
Number of Pixels in Processed Spectrum: 2048
>>>>>Begin Processed Spectral Data<<<<<
339.09	0.00
339.48	221.00
339.86	220.00
340.24	223.00
340.63	217.00
341.01	260.00
341.39	225.00
341.78	237.00
342.16	237.00
342.54	230.00
342.93	223.33
343.31	234.67
343.69	235.33
344.07	235.86
344.46	236.81
344.84	237.90
345.22	236.76
345.60	237.67
345.99	237.86
346.37	238.14
346.75	238.62
347.13	238.95
347.52	239.48
347.90	240.43
348.28	240.29
348.66	240.62
349.05	239.71
349.43	239.90
349.81	240.43
350.19	240.38
350.57	240.38
350.96	240.62
351.34	240.81
351.72	240.86
352.10	241.19
352.48	240.86
352.87	241.00
353.25	241.00
353.63	240.62
354.01	240.62
354.39	240.48
354.77	240.19
355.15	240.95
355.54	240.29
355.92	239.52
356.30	239.71
356.68	241.57
357.06	242.00
357.44	241.38
357.82	240.95
358.20	241.24
358.58	241.14
358.97	241.19
359.35	241.29
359.73	241.71
360.11	241.62
360.49	241.76
360.87	241.43
361.25	241.76
361.63	242.52
362.01	242.29
362.39	242.14
362.77	242.52
363.15	242.00
363.53	242.38
363.91	242.24
364.29	242.14
364.67	239.67
365.05	239.33
365.43	239.57
365.81	240.38
366.19	241.52
366.57	242.62
366.95	242.57
367.33	242.24
367.71	242.29
368.09	242.43
368.47	242.33
368.85	242.05
369.23	242.38
369.61	241.57
369.99	242.57
370.37	242.90
370.75	244.33
371.13	244.19
371.51	243.81
371.89	244.57
372.27	244.95
372.65	245.00
373.03	245.29
373.41	245.14
373.78	244.57
374.16	243.10
374.54	242.10
374.92	241.81
375.30	241.95
375.68	241.10
376.06	241.52
376.44	241.24
376.82	241.57
377.19	241.43
377.57	241.52
377.95	240.52
378.33	240.29
378.71	238.14
379.09	238.52
379.47	239.00
379.84	238.48
380.22	238.19
380.60	237.90
380.98	237.90
381.36	237.81
381.73	237.81
382.11	238.52
382.49	238.48
382.87	238.38
383.25	238.33
383.62	241.38
384.00	240.95
384.38	241.19
384.76	241.76
385.13	243.10
385.51	242.81
385.89	242.76
386.27	242.86
386.64	243.48
387.02	243.05
387.40	242.86
387.78	242.95
388.15	242.71
388.53	242.57
388.91	242.86
389.29	242.71
389.66	243.10
390.04	242.48
390.42	243.19
390.79	243.57
391.17	243.48
391.55	240.76
391.92	240.76
392.30	241.10
392.68	240.76
393.05	240.19
393.43	240.29
393.81	240.33
394.18	239.76
394.56	239.90
394.94	240.62
395.31	240.43
395.69	241.14
396.06	241.95
396.44	242.38
396.82	241.86
397.19	243.38
397.57	243.00
397.95	243.43
398.32	242.62
398.70	242.62
399.07	243.14
399.45	243.33
399.82	243.24
400.20	243.05
400.58	242.71
400.95	241.86
401.33	242.57
401.70	244.48
402.08	245.05
402.45	245.10
402.83	245.62
403.20	245.90
403.58	245.57
403.95	245.95
404.33	246.43
404.71	246.81
405.08	248.14
405.46	248.38
405.83	248.81
406.21	249.14
406.58	249.29
406.96	249.24
407.33	249.90
407.70	250.90
408.08	253.38
408.45	254.33
408.83	255.10
409.20	255.33
409.58	254.71
409.95	255.86
410.33	256.86
410.70	257.14
411.08	258.29
411.45	259.24
411.82	259.90
412.20	261.38
412.57	264.14
412.95	263.67
413.32	265.67
413.69	267.05
414.07	268.81
414.44	270.76
414.82	273.29
415.19	275.71
415.56	277.90
415.94	278.95
416.31	281.90
416.68	284.95
417.06	288.38
417.43	291.81
417.81	295.76
418.18	299.62
418.55	302.95
418.93	307.48
419.30	312.10
419.67	316.76
420.04	321.05
420.42	325.14
420.79	332.48
421.16	338.33
421.54	345.62
421.91	352.14
422.28	358.81
422.66	365.62
423.03	374.05
423.40	380.71
423.77	387.33
424.15	395.10
424.52	402.38
424.89	411.48
425.26	419.29
425.64	426.48
426.01	434.19
426.38	443.52
426.75	452.67
427.13	462.29
427.50	472.62
427.87	482.95
428.24	493.00
428.61	501.14
428.99	512.38
429.36	522.38
429.73	534.00
430.10	546.24
430.47	558.00
430.85	568.71
431.22	582.38
431.59	598.90
431.96	611.52
432.33	626.95
432.70	641.67
433.08	658.62
433.45	674.48
433.82	690.76
434.19	708.38
434.56	724.57
434.93	739.38
435.30	753.90
435.68	770.90
436.05	787.81
436.42	804.24
436.79	819.33
437.16	836.38
437.53	853.33
437.90	870.05
438.27	886.19
438.64	903.29
439.01	918.52
439.38	929.76
439.75	943.67
440.13	957.62
440.50	970.00
440.87	981.19
441.24	991.52
441.61	1003.95
441.98	1012.48
442.35	1023.19
442.72	1035.29
443.09	1047.57
443.46	1053.10
443.83	1056.43
444.20	1060.19
444.57	1064.62
444.94	1065.05
445.31	1066.05
445.68	1069.38
446.05	1069.90
446.42	1066.29
446.79	1064.00
447.16	1060.62
447.53	1058.00
447.90	1050.48
448.27	1042.43
448.64	1032.10
449.01	1025.67
449.37	1013.90
449.74	1002.24
450.11	991.19
450.48	974.86
450.85	957.90
451.22	944.05
451.59	931.24
451.96	918.71
452.33	902.76
452.70	888.76
453.07	872.24
453.43	852.90
453.80	836.19
454.17	820.14
454.54	803.86
454.91	788.33
455.28	772.24
455.65	758.19
456.02	748.67
456.38	735.95
456.75	720.57
457.12	707.95
457.49	694.95
457.86	679.86
458.23	671.10
458.59	660.57
458.96	650.33
459.33	640.14
459.70	629.81
460.07	622.05
460.43	613.57
460.80	605.86
461.17	597.29
461.54	589.38
461.91	582.05
462.27	574.81
462.64	567.86
463.01	561.10
463.38	555.29
463.74	544.52
464.11	538.43
464.48	533.76
464.85	527.29
465.21	523.62
465.58	519.71
465.95	512.76
466.32	508.24
466.68	503.86
467.05	500.57
467.42	496.38
467.78	491.57
468.15	487.14
468.52	483.43
468.88	480.00
469.25	476.10
469.62	473.71
469.98	470.19
470.35	467.14
470.72	463.10
471.08	458.43
471.45	455.90
471.82	453.76
472.18	450.33
472.55	448.71
472.92	445.67
473.28	442.57
473.65	440.38
474.02	437.62
474.38	435.48
474.75	433.24
475.11	430.76
475.48	429.00
475.85	427.52
476.21	426.10
476.58	424.81
476.94	423.57
477.31	421.95
477.67	420.62
478.04	419.76
478.41	419.67
478.77	421.90
479.14	421.24
479.50	420.86
479.87	420.71
480.23	420.19
480.60	420.29
480.96	420.81
481.33	422.81
481.69	423.81
482.06	424.52
482.42	425.38
482.79	427.29
483.15	428.29
483.52	429.43
483.88	430.38
484.25	431.81
484.61	433.81
484.98	435.14
485.34	438.19
485.71	440.10
486.07	441.57
486.44	440.76
486.80	442.52
487.17	444.52
487.53	447.29
487.90	449.48
488.26	452.57
488.62	454.67
488.99	455.14
489.35	457.14
489.72	458.95
490.08	460.33
490.44	461.62
490.81	464.43
491.17	466.43
491.54	468.52
491.90	470.90
492.26	472.24
492.63	474.52
492.99	475.90
493.36	478.67
493.72	481.76
494.08	485.14
494.45	487.71
494.81	491.05
495.17	493.38
495.54	496.62
495.90	499.14
496.26	502.24
496.63	506.24
496.99	508.95
497.35	512.33
497.72	516.48
498.08	520.14
498.44	523.57
498.80	527.76
499.17	531.90
499.53	535.67
499.89	540.71
500.26	545.43
500.62	550.10
500.98	554.57
501.34	558.95
501.71	563.90
502.07	568.52
502.43	572.38
502.79	576.90
503.16	581.62
503.52	585.71
503.88	590.43
504.24	595.29
504.60	600.81
504.97	606.14
505.33	611.24
505.69	617.57
506.05	622.76
506.41	628.52
506.78	633.52
507.14	638.19
507.50	643.19
507.86	648.05
508.22	653.57
508.59	658.62
508.95	664.38
509.31	670.10
509.67	675.43
510.03	680.86
510.39	686.38
510.75	691.52
511.12	696.67
511.48	702.00
511.84	706.71
512.20	711.71
512.56	716.24
512.92	721.00
513.28	725.14
513.64	730.00
514.00	733.48
514.37	738.05
514.73	743.00
515.09	747.67
515.45	753.19
515.81	756.57
516.17	760.86
516.53	764.33
516.89	767.48
517.25	772.00
517.61	776.10
517.97	779.57
518.33	783.67
518.69	787.86
519.05	791.81
519.41	796.33
519.77	800.90
520.13	804.90
520.49	807.86
520.85	811.00
521.21	814.57
521.57	818.38
521.93	821.10
522.29	824.24
522.65	825.43
523.01	827.19
523.37	829.29
523.73	832.00
524.09	834.14
524.45	836.29
524.81	838.14
525.17	839.81
525.53	841.62
525.89	842.90
526.25	844.86
526.61	845.10
526.97	845.62
527.33	845.67
527.68	849.19
528.04	850.57
528.40	851.62
528.76	852.48
529.12	853.81
529.48	855.48
529.84	855.57
530.20	858.62
530.56	860.67
530.91	863.24
531.27	864.05
531.63	865.38
531.99	866.43
532.35	867.90
532.71	869.38
533.07	871.33
533.42	875.10
533.78	876.48
534.14	879.29
534.50	881.38
534.86	884.05
535.21	883.52
535.57	885.95
535.93	886.95
536.29	889.67
536.65	891.71
537.00	894.38
537.36	898.71
537.72	901.67
538.08	905.81
538.44	909.38
538.79	913.71
539.15	918.62
539.51	923.76
539.87	927.90
540.22	932.62
540.58	937.48
540.94	939.90
541.29	943.90
541.65	947.71
542.01	951.86
542.37	955.48
542.72	958.24
543.08	960.00
543.44	962.05
543.79	961.62
544.15	962.62
544.51	962.71
544.87	961.24
545.22	959.52
545.58	956.33
545.94	952.95
546.29	949.52
546.65	945.86
547.01	940.62
547.36	936.52
547.72	930.95
548.07	925.81
548.43	920.62
548.79	915.10
549.14	909.00
549.50	904.29
549.86	898.48
550.21	894.57
550.57	890.10
550.92	886.19
551.28	883.57
551.64	879.19
551.99	875.14
552.35	871.67
552.70	868.00
553.06	864.90
553.41	862.71
553.77	861.48
554.13	859.00
554.48	856.90
554.84	853.90
555.19	851.38
555.55	850.90
555.90	849.38
556.26	847.33
556.61	845.19
556.97	841.62
557.32	838.86
557.68	836.24
558.03	834.52
558.39	832.52
558.74	830.33
559.10	828.14
559.45	826.71
559.81	824.67
560.16	823.52
560.52	821.43
560.87	819.29
561.23	815.67
561.58	815.38
561.94	812.71
562.29	811.24
562.64	810.10
563.00	805.81
563.35	803.10
563.71	801.33
564.06	800.38
564.42	798.52
564.77	796.90
565.12	795.48
565.48	796.05
565.83	795.33
566.19	793.48
566.54	792.24
566.89	790.05
567.25	789.86
567.60	789.43
567.96	790.00
568.31	790.14
568.66	790.10
569.02	787.29
569.37	786.90
569.72	784.86
570.08	783.62
570.43	782.48
570.78	780.95
571.14	779.62
571.49	778.00
571.84	777.10
572.20	776.71
572.55	775.05
572.90	771.52
573.26	769.52
573.61	768.38
573.96	768.38
574.31	767.95
574.67	766.24
575.02	764.43
575.37	761.52
575.72	759.24
576.08	758.19
576.43	756.48
576.78	755.14
577.13	754.38
577.49	754.29
577.84	753.86
578.19	753.52
578.54	752.67
578.90	751.95
579.25	751.43
579.60	749.95
579.95	749.10
580.30	748.33
580.66	747.67
581.01	746.48
581.36	744.86
581.71	742.81
582.06	743.24
582.42	742.10
582.77	740.71
583.12	739.81
583.47	738.48
583.82	737.67
584.17	736.71
584.53	735.95
584.88	733.67
585.23	732.90
585.58	730.71
585.93	728.43
586.28	726.48
586.63	724.14
586.98	723.05
587.34	720.71
587.69	718.33
588.04	716.14
588.39	714.19
588.74	710.48
589.09	709.52
589.44	704.95
589.79	701.86
590.14	699.52
590.49	695.10
590.84	690.95
591.19	687.52
591.54	684.43
591.89	680.86
592.25	679.52
592.60	674.52
592.95	671.81
593.30	669.00
593.65	665.81
594.00	661.52
594.35	663.90
594.70	660.62
595.05	657.43
595.40	653.57
595.75	649.81
596.10	647.43
596.45	643.62
596.80	640.76
597.15	638.10
597.50	634.57
597.85	633.71
598.19	630.67
598.54	627.57
598.89	624.29
599.24	621.71
599.59	617.00
599.94	614.71
600.29	611.76
600.64	610.00
600.99	608.67
601.34	607.29
601.69	598.43
602.04	595.95
602.39	592.95
602.74	591.76
603.08	589.90
603.43	588.62
603.78	586.05
604.13	583.95
604.48	581.81
604.83	581.43
605.18	580.33
605.53	581.33
605.87	583.62
606.22	587.95
606.57	593.62
606.92	600.62
607.27	607.57
607.62	614.33
607.96	620.57
608.31	625.52
608.66	630.90
609.01	635.67
609.36	640.43
609.70	645.00
610.05	648.00
610.40	651.29
610.75	653.43
611.10	656.48
611.44	658.24
611.79	659.38
612.14	659.19
612.49	657.33
612.83	655.05
613.18	650.71
613.53	644.33
613.88	636.14
614.22	626.62
614.57	616.95
614.92	607.33
615.27	598.00
615.61	589.52
615.96	581.52
616.31	574.43
616.65	567.48
617.00	560.19
617.35	554.24
617.70	547.67
618.04	541.52
618.39	535.43
618.74	531.00
619.08	525.71
619.43	521.29
619.78	517.86
620.12	514.43
620.47	511.71
620.82	508.48
621.16	505.57
621.51	504.67
621.85	502.48
622.20	500.48
622.55	497.48
622.89	494.62
623.24	492.19
623.59	489.43
623.93	487.19
624.28	485.24
624.62	485.52
624.97	484.86
625.32	482.71
625.66	480.86
626.01	478.43
626.35	477.38
626.70	475.57
627.04	475.14
627.39	474.19
627.73	473.05
628.08	471.62
628.43	469.48
628.77	466.00
629.12	463.76
629.46	461.71
629.81	460.00
630.15	457.90
630.50	455.52
630.84	453.10
631.19	450.71
631.53	448.95
631.88	443.62
632.22	440.00
632.57	437.95
632.91	435.38
633.26	433.71
633.60	431.29
633.95	429.00
634.29	424.86
634.64	421.67
634.98	418.67
635.32	416.90
635.67	414.67
636.01	412.57
636.36	410.57
636.70	409.00
637.05	407.10
637.39	404.90
637.73	403.52
638.08	402.67
638.42	400.67
638.77	399.24
639.11	397.76
639.45	396.24
639.80	394.90
640.14	393.62
640.49	391.67
640.83	390.05
641.17	388.52
641.52	387.71
641.86	386.43
642.20	386.00
642.55	383.67
642.89	383.14
643.23	381.86
643.58	381.57
643.92	379.57
644.26	378.33
644.61	378.29
644.95	377.33
645.29	375.57
645.64	375.76
645.98	374.19
646.32	373.86
646.66	372.90
647.01	372.14
647.35	371.86
647.69	371.33
648.04	370.62
648.38	370.05
648.72	369.14
649.06	367.86
649.41	365.95
649.75	365.52
650.09	364.76
650.43	363.71
650.78	362.10
651.12	361.19
651.46	360.38
651.80	358.90
652.14	357.33
652.49	356.86
652.83	354.62
653.17	353.57
653.51	351.62
653.85	350.48
654.20	348.95
654.54	347.14
654.88	345.24
655.22	343.76
655.56	342.38
655.90	341.19
656.25	340.48
656.59	339.71
656.93	338.62
657.27	338.67
657.61	337.81
657.95	337.19
658.29	336.57
658.64	336.05
658.98	334.71
659.32	333.76
659.66	333.00
660.00	333.05
660.34	332.57
660.68	332.48
661.02	332.10
661.36	331.19
661.70	330.33
662.05	329.71
662.39	329.62
662.73	329.57
663.07	330.24
663.41	330.10
663.75	328.90
664.09	328.67
664.43	326.81
664.77	326.14
665.11	325.05
665.45	324.24
665.79	323.81
666.13	323.33
666.47	322.95
666.81	322.19
667.15	320.48
667.49	319.90
667.83	319.67
668.17	318.43
668.51	317.81
668.85	317.86
669.19	318.76
669.53	317.71
669.87	316.71
670.21	314.86
670.55	314.00
670.89	314.76
671.23	313.95
671.57	313.19
671.91	312.86
672.25	312.52
672.58	313.24
672.92	311.86
673.26	311.76
673.60	311.48
673.94	310.81
674.28	311.05
674.62	310.90
674.96	310.05
675.30	310.29
675.64	310.62
675.97	310.29
676.31	308.67
676.65	308.19
676.99	308.29
677.33	308.05
677.67	307.62
678.01	306.00
678.34	305.52
678.68	305.86
679.02	305.24
679.36	304.57
679.70	303.10
680.04	302.81
680.37	302.14
680.71	301.24
681.05	301.00
681.39	300.52
681.73	299.95
682.06	299.52
682.40	298.67
682.74	298.05
683.08	298.19
683.42	297.81
683.75	297.67
684.09	297.05
684.43	296.52
684.77	295.38
685.10	295.19
685.44	294.86
685.78	294.14
686.12	293.52
686.45	293.19
686.79	292.29
687.13	292.43
687.46	292.14
687.80	292.90
688.14	292.24
688.48	292.05
688.81	291.81
689.15	292.14
689.49	291.43
689.82	290.81
690.16	289.57
690.50	289.43
690.83	288.90
691.17	287.67
691.51	287.52
691.84	287.76
692.18	287.00
692.52	286.57
692.85	286.24
693.19	286.71
693.52	286.57
693.86	286.57
694.20	285.71
694.53	285.19
694.87	284.10
695.21	283.57
695.54	283.00
695.88	281.95
696.21	280.29
696.55	280.29
696.88	279.90
697.22	279.38
697.56	279.24
697.89	278.57
698.23	278.90
698.56	278.29
698.90	278.14
699.23	277.95
699.57	277.95
699.90	277.62
700.24	276.81
700.58	276.71
700.91	276.86
701.25	279.10
701.58	280.33
701.92	281.10
702.25	281.52
702.59	281.76
702.92	282.29
703.26	282.95
703.59	283.33
703.93	285.38
704.26	286.19
704.60	286.48
704.93	287.05
705.26	287.33
705.60	288.14
705.93	288.14
706.27	289.10
706.60	289.90
706.94	291.05
707.27	291.19
707.61	291.48
707.94	291.52
708.27	289.81
708.61	288.76
708.94	288.19
709.28	288.05
709.61	287.33
709.94	287.14
710.28	286.76
710.61	286.14
710.95	283.90
711.28	284.62
711.61	283.57
711.95	283.52
712.28	282.24
712.61	281.24
712.95	281.71
713.28	281.90
713.61	280.48
713.95	278.71
714.28	277.86
714.61	276.48
714.95	275.43
715.28	274.14
715.61	273.48
715.95	272.86
716.28	272.00
716.61	272.00
716.95	270.81
717.28	270.29
717.61	270.10
717.94	269.43
718.28	266.90
718.61	266.19
718.94	265.19
719.27	264.86
719.61	264.62
719.94	263.67
720.27	262.19
720.60	261.90
720.94	261.52
721.27	261.38
721.60	261.76
721.93	261.76
722.27	262.57
722.60	262.29
722.93	261.86
723.26	261.57
723.59	260.90
723.93	261.43
724.26	261.52
724.59	261.14
724.92	261.00
725.25	261.86
725.59	261.86
725.92	261.90
726.25	261.67
726.58	261.48
726.91	260.90
727.24	261.33
727.57	261.00
727.91	260.62
728.24	260.76
728.57	260.19
728.90	260.43
729.23	259.33
729.56	260.43
729.89	260.19
730.22	259.86
730.55	259.48
730.89	259.05
731.22	258.57
731.55	258.29
731.88	258.48
732.21	257.52
732.54	257.57
732.87	257.29
733.20	257.67
733.53	257.67
733.86	257.95
734.19	257.19
734.52	257.33
734.85	259.05
735.18	258.52
735.51	259.52
735.84	259.43
736.17	259.90
736.50	258.29
736.83	260.95
737.16	260.76
737.49	261.10
737.82	260.86
738.15	260.76
738.48	260.57
738.81	260.14
739.14	260.43
739.47	260.43
739.80	260.14
740.13	260.29
740.46	259.76
740.79	259.38
741.12	259.29
741.45	258.95
741.78	257.29
742.11	258.19
742.44	257.43
742.77	257.52
743.10	256.95
743.43	256.90
743.75	254.43
744.08	257.95
744.41	257.67
744.74	257.86
745.07	257.48
745.40	258.00
745.73	258.76
746.06	258.38
746.39	258.29
746.71	258.14
747.04	257.19
747.37	257.24
747.70	257.76
748.03	257.86
748.36	258.24
748.68	258.48
749.01	257.48
749.34	257.14
749.67	256.86
750.00	257.05
750.33	258.86
750.65	258.86
750.98	255.14
751.31	255.14
751.64	254.86
751.97	256.38
752.29	255.71
752.62	254.86
752.95	254.86
753.28	254.29
753.60	254.38
753.93	255.10
754.26	254.86
754.59	253.57
754.91	253.29
755.24	252.90
755.57	252.29
755.90	252.10
756.22	251.86
756.55	251.19
756.88	250.86
757.20	249.10
757.53	248.38
757.86	248.57
758.19	248.67
758.51	248.86
758.84	247.29
759.17	247.19
759.49	247.24
759.82	248.33
760.15	248.76
760.47	248.38
760.80	247.86
761.13	248.19
761.45	248.48
761.78	248.43
762.11	248.38
762.43	248.19
762.76	248.05
763.08	248.10
763.41	248.48
763.74	248.43
764.06	248.33
764.39	248.33
764.71	248.43
765.04	248.00
765.37	247.71
765.69	247.67
766.02	247.81
766.34	247.71
766.67	246.33
767.00	246.71
767.32	248.05
767.65	249.67
767.97	249.86
768.30	249.71
768.62	249.62
768.95	249.38
769.27	249.57
769.60	250.10
769.92	249.81
770.25	249.38
770.57	249.14
770.90	248.95
771.22	248.67
771.55	248.62
771.87	248.90
772.20	248.62
772.52	250.43
772.85	253.38
773.17	253.24
773.50	253.57
773.82	252.95
774.15	252.05
774.47	250.57
774.80	249.81
775.12	250.00
775.45	249.81
775.77	250.14
776.09	250.14
776.42	249.86
776.74	250.57
777.07	250.52
777.39	250.43
777.72	250.29
778.04	250.48
778.36	250.29
778.69	250.29
779.01	250.52
779.33	248.43
779.66	245.38
779.98	245.48
780.31	245.33
780.63	246.24
780.95	246.33
781.28	245.90
781.60	245.90
781.92	245.95
782.25	246.10
782.57	245.62
782.89	245.52
783.22	245.48
783.54	244.95
783.86	245.14
784.19	244.71
784.51	245.43
784.83	245.19
785.16	244.95
785.48	244.62
785.80	244.38
786.12	244.38
786.45	244.48
786.77	244.24
787.09	244.38
787.42	243.52
787.74	243.48
788.06	243.90
788.38	243.86
788.71	243.24
789.03	242.95
789.35	243.48
789.67	243.29
789.99	243.24
790.32	243.00
790.64	242.95
790.96	245.29
791.28	244.67
791.61	244.76
791.93	244.71
792.25	244.57
792.57	246.67
792.89	246.57
793.21	246.52
793.54	246.33
793.86	245.86
794.18	245.86
794.50	245.81
794.82	245.48
795.14	245.67
795.47	246.19
795.79	246.33
796.11	245.57
796.43	245.52
796.75	245.62
797.07	245.86
797.39	245.81
797.71	243.90
798.04	244.00
798.36	244.00
798.68	244.19
799.00	244.48
799.32	242.95
799.64	243.38
799.96	243.38
800.28	243.95
800.60	243.62
800.92	243.95
801.24	243.71
801.56	244.05
801.89	243.95
802.21	243.95
802.53	243.57
802.85	244.05
803.17	245.10
803.49	244.48
803.81	244.00
804.13	243.95
804.45	243.95
804.77	244.05
805.09	244.10
805.41	243.67
805.73	243.52
806.05	242.90
806.37	243.00
806.69	242.76
807.01	242.33
807.33	242.67
807.65	241.76
807.97	242.95
808.28	242.43
808.60	242.52
808.92	242.62
809.24	244.43
809.56	244.05
809.88	243.29
810.20	243.71
810.52	244.19
810.84	244.05
811.16	243.43
811.48	243.43
811.80	244.24
812.12	244.62
812.43	244.43
812.75	244.57
813.07	244.05
813.39	244.19
813.71	244.00
814.03	243.52
814.35	243.86
814.67	242.52
814.98	242.71
815.30	242.71
815.62	241.90
815.94	240.10
816.26	241.29
816.58	240.57
816.89	240.43
817.21	240.29
817.53	240.48
817.85	240.76
818.17	240.62
818.48	239.48
818.80	239.95
819.12	240.00
819.44	239.81
819.76	239.43
820.07	239.62
820.39	239.48
820.71	240.10
821.03	240.10
821.34	240.33
821.66	240.52
821.98	240.48
822.30	240.76
822.61	242.43
822.93	241.38
823.25	241.52
823.57	241.33
823.88	242.05
824.20	241.86
824.52	242.52
824.83	242.43
825.15	242.43
825.47	242.14
825.79	242.33
826.10	242.19
826.42	242.52
826.74	242.57
827.05	242.76
827.37	242.62
827.69	242.43
828.00	242.38
828.32	242.38
828.64	242.05
828.95	243.29
829.27	242.67
829.58	242.24
829.90	243.05
830.22	243.29
830.53	242.52
830.85	242.43
831.17	241.71
831.48	241.57
831.80	241.81
832.11	241.62
832.43	241.38
832.75	241.14
833.06	242.52
833.38	241.57
833.69	241.52
834.01	241.81
834.32	241.71
834.64	241.33
834.96	241.43
835.27	241.71
835.59	240.76
835.90	240.00
836.22	240.24
836.53	239.48
836.85	239.48
837.16	241.95
837.48	241.86
837.79	242.67
838.11	243.10
838.42	243.33
838.74	243.67
839.05	243.43
839.37	243.67
839.68	242.00
840.00	242.00
840.31	242.33
840.63	242.10
840.94	242.05
841.26	242.00
841.57	241.81
841.88	241.76
842.20	241.67
842.51	241.29
842.83	241.33
843.14	243.57
843.46	243.67
843.77	241.95
844.08	242.00
844.40	241.29
844.71	240.71
845.03	240.19
845.34	240.14
845.65	240.57
845.97	240.57
846.28	241.00
846.60	241.29
846.91	240.86
847.22	241.05
847.54	241.76
847.85	241.90
848.16	241.71
848.48	241.29
848.79	242.19
849.10	242.57
849.42	242.71
849.73	240.33
850.04	239.95
850.36	239.29
850.67	239.90
850.98	240.24
851.30	240.62
851.61	240.81
851.92	240.62
852.23	240.86
852.55	240.76
852.86	240.90
853.17	241.38
853.49	241.71
853.80	241.90
854.11	241.86
854.42	242.10
854.74	241.90
855.05	242.29
855.36	241.19
855.67	241.19
855.99	241.10
856.30	244.29
856.61	244.29
856.92	244.38
857.23	243.95
857.55	243.57
857.86	243.43
858.17	243.76
858.48	243.48
858.79	243.00
859.11	243.29
859.42	242.76
859.73	242.67
860.04	242.43
860.35	241.71
860.66	240.81
860.98	240.71
861.29	241.48
861.60	241.14
861.91	241.62
862.22	241.57
862.53	241.29
862.84	238.43
863.16	239.29
863.47	238.67
863.78	238.62
864.09	238.62
864.40	238.90
864.71	239.10
865.02	239.10
865.33	239.10
865.64	238.67
865.95	238.76
866.27	240.33
866.58	240.19
866.89	240.52
867.20	240.33
867.51	239.81
867.82	239.38
868.13	240.00
868.44	239.48
868.75	240.00
869.06	240.29
869.37	240.33
869.68	239.43
869.99	239.95
870.30	239.81
870.61	240.00
870.92	239.52
871.23	239.05
871.54	239.67
871.85	240.19
872.16	240.43
872.47	240.29
872.78	238.33
873.09	238.52
873.40	238.14
873.71	238.71
874.02	239.33
874.33	238.86
874.64	238.19
874.95	238.43
875.26	237.76
875.56	237.62
875.87	237.76
876.18	237.62
876.49	239.95
876.80	240.10
877.11	239.81
877.42	240.05
877.73	240.10
878.04	239.71
878.35	239.76
878.66	239.67
878.96	239.76
879.27	240.10
879.58	239.86
879.89	239.95
880.20	240.48
880.51	240.10
880.82	240.19
881.12	240.67
881.43	240.29
881.74	240.00
882.05	239.71
882.36	240.00
882.67	240.38
882.97	237.81
883.28	237.43
883.59	237.38
883.90	237.52
884.21	237.71
884.51	237.62
884.82	237.10
885.13	237.05
885.44	237.05
885.74	236.95
886.05	237.19
886.36	237.33
886.67	236.52
886.98	237.90
887.28	238.05
887.59	238.00
887.90	238.14
888.20	238.48
888.51	239.19
888.82	238.52
889.13	238.48
889.43	240.52
889.74	240.48
890.05	240.52
890.35	240.19
890.66	239.81
890.97	239.33
891.28	239.10
891.58	239.29
891.89	239.19
892.20	238.95
892.50	238.52
892.81	238.62
893.12	238.86
893.42	237.71
893.73	238.05
894.04	238.19
894.34	238.71
894.65	238.57
894.95	238.00
895.26	238.19
895.57	239.19
895.87	236.86
896.18	237.43
896.48	237.71
896.79	237.57
897.10	238.19
897.40	238.62
897.71	239.05
898.01	239.05
898.32	239.33
898.63	239.00
898.93	239.48
899.24	239.38
899.54	239.05
899.85	238.86
900.15	238.71
900.46	238.24
900.76	238.29
901.07	238.52
901.38	238.86
901.68	239.14
901.99	237.81
902.29	238.24
902.60	238.05
902.90	237.52
903.21	237.57
903.51	237.29
903.82	237.57
904.12	237.48
904.43	237.57
904.73	237.67
905.03	238.05
905.34	240.33
905.64	240.00
905.95	240.10
906.25	240.29
906.56	240.19
906.86	240.33
907.17	239.95
907.47	239.81
907.77	239.52
908.08	239.10
908.38	239.67
908.69	239.48
908.99	239.52
909.30	239.81
909.60	239.81
909.90	240.19
910.21	239.52
910.51	239.14
910.81	239.10
911.12	238.90
911.42	238.95
911.73	236.29
912.03	236.71
912.33	237.14
912.64	236.95
912.94	236.76
913.24	236.67
913.55	236.71
913.85	236.71
914.15	237.14
914.46	237.57
914.76	237.29
915.06	237.38
915.37	237.05
915.67	236.90
915.97	237.00
916.27	236.38
916.58	236.48
916.88	236.52
917.18	236.57
917.49	238.29
917.79	238.14
918.09	238.76
918.39	239.43
918.70	239.10
919.00	239.14
919.30	239.90
919.60	239.90
919.91	239.86
920.21	239.52
920.51	238.90
920.81	238.24
921.12	238.48
921.42	238.67
921.72	239.14
922.02	239.24
922.32	239.62
922.63	239.90
922.93	241.29
923.23	241.48
923.53	241.14
923.83	239.67
924.13	239.95
924.44	239.67
924.74	240.05
925.04	240.71
925.34	240.67
925.64	240.00
925.94	240.10
926.24	241.14
926.55	241.38
926.85	241.90
927.15	242.24
927.45	242.57
927.75	242.33
928.05	242.10
928.35	242.24
928.65	242.43
928.95	242.62
929.26	241.43
929.56	241.90
929.86	242.48
930.16	242.14
930.46	242.19
930.76	242.33
931.06	240.95
931.36	240.52
931.66	241.00
931.96	241.33
932.26	241.43
932.56	240.52
932.86	240.57
933.16	240.38
933.46	240.33
933.76	239.67
934.06	240.33
934.36	241.24
934.66	240.67
934.96	240.33
935.26	240.33
935.56	240.62
935.86	240.10
936.16	239.57
936.46	239.57
936.76	239.05
937.06	238.67
937.36	239.05
937.66	239.05
937.96	238.95
938.26	238.71
938.56	238.48
938.86	238.67
939.16	238.95
939.46	239.10
939.76	239.43
940.06	239.62
940.35	238.90
940.65	237.81
940.95	238.38
941.25	237.81
941.55	237.33
941.85	237.33
942.15	237.90
942.45	238.76
942.75	238.81
943.04	239.43
943.34	240.14
943.64	239.67
943.94	239.19
944.24	239.00
944.54	239.05
944.84	239.43
945.13	239.14
945.43	239.05
945.73	239.14
946.03	238.71
946.33	238.67
946.62	238.67
946.92	238.67
947.22	238.67
947.52	239.14
947.82	239.24
948.11	238.90
948.41	238.33
948.71	237.33
949.01	237.43
949.31	236.95
949.60	236.57
949.90	237.05
950.20	237.10
950.50	236.95
950.79	236.57
951.09	236.71
951.39	236.43
951.69	235.86
951.98	235.90
952.28	236.14
952.58	235.95
952.87	235.86
953.17	236.14
953.47	236.14
953.76	235.90
954.06	235.95
954.36	235.81
954.66	235.52
954.95	236.10
955.25	236.24
955.55	236.48
955.84	236.19
956.14	236.24
956.44	236.57
956.73	236.05
957.03	236.19
957.32	235.62
957.62	235.57
957.92	236.14
958.21	236.05
958.51	238.86
958.81	238.90
959.10	239.10
959.40	239.86
959.69	239.81
959.99	240.52
960.29	240.24
960.58	240.00
960.88	241.10
961.17	241.14
961.47	241.33
961.76	240.90
962.06	241.38
962.36	241.33
962.65	241.29
962.95	241.67
963.24	241.67
963.54	242.10
963.83	242.33
964.13	242.52
964.42	242.29
964.72	239.95
965.01	240.43
965.31	240.33
965.60	239.62
965.90	241.00
966.19	240.14
966.49	240.24
966.78	240.24
967.08	240.00
967.37	240.29
967.67	240.10
967.96	240.71
968.26	240.67
968.55	240.62
968.85	240.67
969.14	240.86
969.43	240.71
969.73	240.71
970.02	240.67
970.32	240.33
970.61	240.19
970.91	239.48
971.20	238.90
971.49	238.76
971.79	239.33
972.08	237.48
972.38	237.71
972.67	238.10
972.96	238.67
973.26	238.05
973.55	238.29
973.85	237.90
974.14	237.81
974.43	237.90
974.73	237.43
975.02	237.10
975.31	236.90
975.61	236.86
975.90	236.38
976.19	236.05
976.49	236.33
976.78	236.67
977.07	236.52
977.37	236.71
977.66	237.00
977.95	236.29
978.24	236.62
978.54	237.19
978.83	236.43
979.12	236.33
979.42	236.29
979.71	236.00
980.00	236.00
980.29	236.19
980.59	235.67
980.88	236.29
981.17	236.43
981.46	236.67
981.76	236.76
982.05	237.62
982.34	237.95
982.63	237.81
982.93	237.52
983.22	238.62
983.51	238.76
983.80	239.14
984.09	239.38
984.39	239.48
984.68	238.90
984.97	239.19
985.26	238.62
985.55	238.90
985.85	238.38
986.14	238.95
986.43	239.05
986.72	239.14
987.01	238.48
987.30	238.48
987.59	238.19
987.89	238.38
988.18	237.67
988.47	237.62
988.76	237.57
989.05	237.52
989.34	236.71
989.63	237.29
989.92	236.90
990.22	236.57
990.51	236.67
990.80	236.52
991.09	236.81
991.38	237.67
991.67	237.52
991.96	237.29
992.25	237.19
992.54	236.57
992.83	236.43
993.12	236.62
993.41	237.14
993.70	238.29
993.99	238.90
994.28	239.33
994.58	239.24
994.87	239.05
995.16	239.00
995.45	238.95
995.74	237.86
996.03	238.57
996.32	239.19
996.61	239.62
996.90	239.95
997.19	239.86
997.48	239.76
997.77	239.52
998.06	239.86
998.34	239.76
998.63	239.81
998.92	239.95
999.21	240.48
999.50	240.57
999.79	239.71
1000.08	239.38
1000.37	239.33
1000.66	239.14
1000.95	239.71
1001.24	239.90
1001.53	240.57
1001.82	240.71
1002.11	239.71
1002.40	240.10
1002.68	240.48
1002.97	242.48
1003.26	242.05
1003.55	241.67
1003.84	242.05
1004.13	243.10
1004.42	243.00
1004.71	243.14
1004.99	243.24
1005.28	243.38
1005.57	242.95
1005.86	242.71
1006.15	242.62
1006.44	242.19
1006.72	242.67
1007.01	242.24
1007.30	242.24
1007.59	242.00
1007.88	242.10
1008.17	242.19
1008.45	241.24
1008.74	240.67
1009.03	239.43
1009.32	239.52
1009.60	239.62
1009.89	239.48
1010.18	238.29
1010.47	238.05
1010.76	238.24
1011.04	238.00
1011.33	237.81
1011.62	238.14
1011.91	238.33
1012.19	238.62
1012.48	238.90
1012.77	239.10
1013.05	240.38
1013.34	240.14
1013.63	239.76
1013.92	239.90
1014.20	239.86
1014.49	240.38
1014.78	240.38
1015.06	239.43
1015.35	239.62
1015.64	239.81
1015.92	239.81
1016.21	239.76
1016.50	239.52
1016.78	239.57
1017.07	239.71
1017.36	239.38
1017.64	238.76
1017.93	238.86
1018.22	238.52
1018.50	238.48
1018.79	238.24
1019.08	237.00
1019.36	237.05
1019.65	236.90
1019.93	237.48
1020.22	237.62
1020.51	238.67
1020.79	238.14
1021.08	238.00
1021.36	238.00
1021.65	240.00
1021.94	239.00
1022.22	233.00
1022.51	234.00
1022.79	248.00
1023.08	237.00
1023.36	269.00
1023.65	231.00
>>>>>End Processed Spectral Data<<<<<
