SpectraSuite Data File
++++++++++++++++++++++++++++++++++++
Date: Wed Nov 07 18:33:05 EST 2012
User: group
Dark Spectrum Present: No
Reference Spectrum Present: No
Number of Sampled Component Spectra: 1
Spectrometers: USB2E7196
Integration Time (usec): 1000000 (USB2E7196)
Spectra Averaged: 1 (USB2E7196)
Boxcar Smoothing: 10 (USB2E7196)
Correct for Electrical Dark: No (USB2E7196)
Strobe/Lamp Enabled: No (USB2E7196)
Correct for Detector Non-linearity: No (USB2E7196)
Correct for Stray Light: No (USB2E7196)
Number of Pixels in Processed Spectrum: 2048
>>>>>Begin Processed Spectral Data<<<<<
339.09	0.00
339.48	225.00
339.86	214.00
340.24	219.00
340.63	222.00
341.01	258.00
341.39	220.00
341.78	227.00
342.16	234.00
342.54	230.00
342.93	220.24
343.31	231.14
343.69	231.57
344.07	232.52
344.46	233.57
344.84	234.33
345.22	233.19
345.60	233.86
345.99	234.33
346.37	234.43
346.75	234.52
347.13	234.67
347.52	235.10
347.90	236.05
348.28	236.10
348.66	236.48
349.05	235.62
349.43	236.14
349.81	236.43
350.19	236.38
350.57	236.19
350.96	236.76
351.34	236.86
351.72	236.33
352.10	236.38
352.48	236.14
352.87	235.90
353.25	235.95
353.63	236.24
354.01	236.10
354.39	236.48
354.77	236.81
355.15	237.57
355.54	237.48
355.92	236.67
356.30	237.14
356.68	239.00
357.06	239.29
357.44	238.71
357.82	238.62
358.20	238.86
358.58	239.19
358.97	239.48
359.35	240.38
359.73	241.43
360.11	241.33
360.49	241.67
360.87	241.81
361.25	242.24
361.63	242.95
362.01	243.29
362.39	242.71
362.77	242.71
363.15	242.67
363.53	243.10
363.91	243.52
364.29	243.33
364.67	241.05
365.05	241.24
365.43	241.90
365.81	242.19
366.19	243.19
366.57	244.05
366.95	243.76
367.33	243.10
367.71	243.10
368.09	243.71
368.47	243.48
368.85	243.43
369.23	243.71
369.61	242.71
369.99	243.43
370.37	244.05
370.75	245.19
371.13	244.67
371.51	244.00
371.89	244.19
372.27	244.24
372.65	244.38
373.03	244.29
373.41	243.86
373.78	243.62
374.16	242.29
374.54	241.67
374.92	241.24
375.30	241.38
375.68	241.10
376.06	241.00
376.44	240.90
376.82	241.19
377.19	240.95
377.57	241.10
377.95	240.29
378.33	240.14
378.71	238.90
379.09	239.38
379.47	239.52
379.84	239.19
380.22	239.14
380.60	238.81
380.98	238.76
381.36	238.86
381.73	238.76
382.11	239.38
382.49	239.48
382.87	239.52
383.25	239.05
383.62	241.86
384.00	241.62
384.38	241.48
384.76	241.48
385.13	242.76
385.51	242.71
385.89	242.38
386.27	242.38
386.64	242.62
387.02	242.10
387.40	242.05
387.78	241.81
388.15	241.62
388.53	241.52
388.91	241.81
389.29	241.57
389.66	242.05
390.04	241.71
390.42	242.00
390.79	242.05
391.17	242.38
391.55	239.38
391.92	239.43
392.30	240.00
392.68	239.71
393.05	238.95
393.43	238.95
393.81	239.29
394.18	239.14
394.56	239.00
394.94	239.57
395.31	239.67
395.69	241.10
396.06	241.71
396.44	241.86
396.82	241.43
397.19	243.05
397.57	242.52
397.95	242.86
398.32	241.81
398.70	241.90
399.07	242.57
399.45	242.90
399.82	242.71
400.20	242.43
400.58	242.67
400.95	242.10
401.33	242.62
401.70	244.14
402.08	244.38
402.45	244.81
402.83	245.90
403.20	245.90
403.58	245.19
403.95	245.33
404.33	246.10
404.71	246.33
405.08	247.86
405.46	248.19
405.83	248.76
406.21	249.43
406.58	250.10
406.96	250.33
407.33	250.67
407.70	251.71
408.08	254.14
408.45	255.19
408.83	256.38
409.20	256.86
409.58	256.38
409.95	257.33
410.33	257.95
410.70	257.86
411.08	259.19
411.45	260.48
411.82	261.10
412.20	262.52
412.57	265.29
412.95	264.19
413.32	266.19
413.69	267.81
414.07	269.76
414.44	271.62
414.82	273.43
415.19	275.86
415.56	278.05
415.94	279.14
416.31	281.90
416.68	284.81
417.06	288.38
417.43	292.00
417.81	295.38
418.18	299.62
418.55	303.48
418.93	307.52
419.30	311.90
419.67	317.10
420.04	321.67
420.42	325.86
420.79	333.86
421.16	339.86
421.54	346.76
421.91	353.00
422.28	359.00
422.66	365.95
423.03	374.29
423.40	381.10
423.77	388.62
424.15	395.43
424.52	402.48
424.89	411.14
425.26	419.00
425.64	426.90
426.01	435.10
426.38	443.71
426.75	453.57
427.13	462.38
427.50	471.81
427.87	481.81
428.24	491.67
428.61	499.33
428.99	511.05
429.36	521.52
429.73	532.52
430.10	544.43
430.47	556.43
430.85	567.48
431.22	580.05
431.59	596.10
431.96	609.67
432.33	624.67
432.70	638.57
433.08	655.62
433.45	671.14
433.82	686.48
434.19	703.86
434.56	719.76
434.93	735.67
435.30	751.43
435.68	768.24
436.05	784.81
436.42	801.48
436.79	816.10
437.16	832.05
437.53	850.14
437.90	866.48
438.27	883.57
438.64	899.95
439.01	916.52
439.38	927.57
439.75	941.10
440.13	955.62
440.50	969.67
440.87	980.05
441.24	991.48
441.61	1003.24
441.98	1012.24
442.35	1023.24
442.72	1035.33
443.09	1046.67
443.46	1053.10
443.83	1057.00
444.20	1060.00
444.57	1063.76
444.94	1065.52
445.31	1066.76
445.68	1071.71
446.05	1071.19
446.42	1068.52
446.79	1066.10
447.16	1062.76
447.53	1060.62
447.90	1053.24
448.27	1044.62
448.64	1035.52
449.01	1027.81
449.37	1016.10
449.74	1004.43
450.11	993.29
450.48	977.05
450.85	960.81
451.22	947.29
451.59	935.05
451.96	922.71
452.33	907.86
452.70	893.48
453.07	876.05
453.43	856.00
453.80	839.62
454.17	823.67
454.54	807.67
454.91	791.38
455.28	774.29
455.65	759.81
456.02	750.86
456.38	737.67
456.75	722.57
457.12	709.71
457.49	696.90
457.86	681.62
458.23	672.43
458.59	661.29
458.96	650.24
459.33	640.14
459.70	630.76
460.07	622.52
460.43	613.05
460.80	604.76
461.17	597.10
461.54	588.95
461.91	581.48
462.27	573.67
462.64	566.90
463.01	560.38
463.38	554.71
463.74	543.10
464.11	536.90
464.48	532.24
464.85	527.52
465.21	523.62
465.58	519.48
465.95	512.71
466.32	508.19
466.68	503.48
467.05	499.10
467.42	494.19
467.78	489.29
468.15	485.10
468.52	482.33
468.88	477.81
469.25	473.62
469.62	470.95
469.98	467.76
470.35	465.24
470.72	461.90
471.08	457.24
471.45	454.71
471.82	452.33
472.18	449.05
472.55	446.57
472.92	443.19
473.28	440.48
473.65	438.14
474.02	435.86
474.38	433.67
474.75	431.86
475.11	429.71
475.48	428.24
475.85	426.90
476.21	425.19
476.58	424.52
476.94	423.48
477.31	421.95
477.67	420.38
478.04	419.14
478.41	418.57
478.77	420.81
479.14	419.76
479.50	419.43
479.87	419.86
480.23	419.14
480.60	419.33
480.96	419.90
481.33	421.33
481.69	421.52
482.06	422.57
482.42	423.10
482.79	424.05
483.15	424.95
483.52	425.90
483.88	426.43
484.25	427.48
484.61	428.57
484.98	429.67
485.34	432.19
485.71	434.19
486.07	436.24
486.44	435.33
486.80	436.86
487.17	438.14
487.53	440.14
487.90	442.76
488.26	445.52
488.62	447.57
488.99	448.43
489.35	450.62
489.72	451.95
490.08	453.29
490.44	455.19
490.81	457.00
491.17	459.10
491.54	461.95
491.90	464.33
492.26	466.71
492.63	469.52
492.99	471.29
493.36	473.67
493.72	476.24
494.08	478.95
494.45	482.48
494.81	486.00
495.17	488.48
495.54	491.14
495.90	493.81
496.26	496.57
496.63	501.05
496.99	504.24
497.35	508.10
497.72	513.14
498.08	517.05
498.44	521.24
498.80	526.14
499.17	530.24
499.53	533.95
499.89	538.81
500.26	543.29
500.62	548.38
500.98	553.43
501.34	558.14
501.71	563.48
502.07	568.10
502.43	572.86
502.79	577.71
503.16	583.00
503.52	587.81
503.88	592.71
504.24	597.52
504.60	602.57
504.97	607.67
505.33	611.67
505.69	617.90
506.05	623.24
506.41	628.43
506.78	633.14
507.14	638.48
507.50	643.95
507.86	648.95
508.22	654.10
508.59	659.38
508.95	665.00
509.31	671.62
509.67	676.86
510.03	682.38
510.39	687.62
510.75	693.10
511.12	698.52
511.48	704.52
511.84	708.76
512.20	714.48
512.56	720.05
512.92	726.14
513.28	730.95
513.64	735.76
514.00	740.19
514.37	745.05
514.73	750.52
515.09	755.14
515.45	759.81
515.81	764.29
516.17	768.86
516.53	773.00
516.89	775.57
517.25	779.48
517.61	783.62
517.97	787.19
518.33	790.76
518.69	794.90
519.05	798.19
519.41	802.43
519.77	807.10
520.13	810.86
520.49	813.48
520.85	816.52
521.21	820.90
521.57	823.90
521.93	826.52
522.29	829.00
522.65	830.67
523.01	833.33
523.37	836.10
523.73	838.48
524.09	840.57
524.45	843.19
524.81	846.14
525.17	848.52
525.53	851.10
525.89	853.29
526.25	854.90
526.61	856.81
526.97	858.10
527.33	858.76
527.68	861.62
528.04	862.95
528.40	864.33
528.76	865.19
529.12	867.24
529.48	869.76
529.84	870.24
530.20	872.57
530.56	874.57
530.91	875.62
531.27	876.33
531.63	877.95
531.99	878.67
532.35	878.86
532.71	878.95
533.07	880.05
533.42	884.14
533.78	884.76
534.14	885.43
534.50	886.38
534.86	887.71
535.21	887.10
535.57	889.67
535.93	890.43
536.29	893.33
536.65	895.33
537.00	895.90
537.36	898.62
537.72	900.95
538.08	902.90
538.44	905.29
538.79	907.81
539.15	909.19
539.51	911.81
539.87	914.33
540.22	916.95
540.58	919.95
540.94	919.62
541.29	921.90
541.65	924.10
542.01	927.52
542.37	929.43
542.72	930.10
543.08	929.48
543.44	930.43
543.79	928.05
544.15	927.90
544.51	928.38
544.87	927.05
545.22	925.43
545.58	923.86
545.94	921.05
546.29	919.71
546.65	917.62
547.01	914.33
547.36	911.95
547.72	909.95
548.07	906.33
548.43	902.76
548.79	900.19
549.14	896.67
549.50	893.38
549.86	889.52
550.21	887.38
550.57	885.19
550.92	882.29
551.28	880.48
551.64	877.29
551.99	875.14
552.35	872.71
552.70	870.14
553.06	868.24
553.41	865.95
553.77	864.95
554.13	864.43
554.48	863.71
554.84	862.24
555.19	860.24
555.55	861.24
555.90	859.48
556.26	856.76
556.61	855.19
556.97	852.43
557.32	851.29
557.68	850.00
558.03	848.48
558.39	846.43
558.74	844.71
559.10	843.14
559.45	841.05
559.81	839.62
560.16	837.76
560.52	835.57
560.87	835.05
561.23	831.67
561.58	831.10
561.94	828.33
562.29	826.71
562.64	825.00
563.00	820.71
563.35	819.14
563.71	818.43
564.06	816.76
564.42	815.00
564.77	812.76
565.12	811.10
565.48	812.52
565.83	811.81
566.19	810.33
566.54	808.86
566.89	806.81
567.25	807.14
567.60	807.95
567.96	808.95
568.31	808.52
568.66	808.52
569.02	805.67
569.37	804.95
569.72	803.57
570.08	802.10
570.43	800.48
570.78	798.57
571.14	797.00
571.49	795.48
571.84	793.90
572.20	793.24
572.55	792.05
572.90	787.48
573.26	785.62
573.61	783.81
573.96	782.29
574.31	781.33
574.67	778.81
575.02	775.86
575.37	771.52
575.72	768.57
576.08	766.29
576.43	764.90
576.78	762.90
577.13	761.90
577.49	760.14
577.84	759.52
578.19	758.38
578.54	757.52
578.90	756.57
579.25	755.76
579.60	754.57
579.95	753.00
580.30	752.38
580.66	751.57
581.01	750.33
581.36	748.43
581.71	747.43
582.06	746.62
582.42	745.00
582.77	744.24
583.12	743.48
583.47	742.19
583.82	740.86
584.17	740.00
584.53	738.90
584.88	737.05
585.23	735.43
585.58	734.29
585.93	731.29
586.28	729.57
586.63	727.86
586.98	725.05
587.34	723.48
587.69	720.43
588.04	717.19
588.39	714.95
588.74	712.19
589.09	709.38
589.44	704.86
589.79	702.19
590.14	699.29
590.49	695.29
590.84	691.48
591.19	687.81
591.54	685.29
591.89	681.38
592.25	680.52
592.60	676.86
592.95	673.52
593.30	671.90
593.65	668.05
594.00	664.95
594.35	668.67
594.70	664.62
595.05	662.05
595.40	660.05
595.75	657.05
596.10	654.57
596.45	651.67
596.80	649.90
597.15	646.95
597.50	643.62
597.85	642.76
598.19	640.14
598.54	637.19
598.89	633.48
599.24	630.24
599.59	625.67
599.94	622.38
600.29	619.76
600.64	615.81
600.99	614.57
601.34	612.14
601.69	603.24
602.04	601.14
602.39	598.67
602.74	596.67
603.08	594.05
603.43	593.10
603.78	590.76
604.13	589.00
604.48	587.29
604.83	586.38
605.18	585.00
605.53	585.24
605.87	586.81
606.22	590.67
606.57	595.33
606.92	600.52
607.27	607.38
607.62	613.19
607.96	619.71
608.31	623.95
608.66	628.33
609.01	631.71
609.36	634.90
609.70	638.67
610.05	641.10
610.40	644.62
610.75	645.57
611.10	647.86
611.44	648.29
611.79	649.00
612.14	649.62
612.49	647.52
612.83	645.29
613.18	641.33
613.53	635.48
613.88	628.48
614.22	620.67
614.57	611.48
614.92	602.95
615.27	594.48
615.61	586.29
615.96	578.62
616.31	572.38
616.65	566.48
617.00	559.67
617.35	553.29
617.70	546.76
618.04	541.67
618.39	536.29
618.74	532.29
619.08	528.48
619.43	523.95
619.78	520.95
620.12	518.00
620.47	515.38
620.82	512.48
621.16	509.29
621.51	507.62
621.85	505.00
622.20	502.33
622.55	499.29
622.89	497.29
623.24	495.05
623.59	491.52
623.93	489.00
624.28	486.76
624.62	487.38
624.97	487.38
625.32	485.43
625.66	483.19
626.01	481.19
626.35	478.81
626.70	477.48
627.04	476.86
627.39	474.81
627.73	473.57
628.08	471.71
628.43	470.10
628.77	466.81
629.12	464.95
629.46	463.38
629.81	461.81
630.15	460.00
630.50	458.05
630.84	456.67
631.19	454.29
631.53	451.71
631.88	446.71
632.22	442.52
632.57	440.57
632.91	438.57
633.26	436.33
633.60	433.81
633.95	430.67
634.29	426.76
634.64	424.52
634.98	421.76
635.32	420.29
635.67	418.14
636.01	416.81
636.36	414.10
636.70	412.43
637.05	410.19
637.39	407.90
637.73	405.90
638.08	405.05
638.42	403.71
638.77	402.67
639.11	401.48
639.45	399.62
639.80	397.76
640.14	396.10
640.49	394.38
640.83	393.33
641.17	392.48
641.52	391.19
641.86	390.14
642.20	389.57
642.55	387.19
642.89	385.95
643.23	384.71
643.58	384.95
643.92	382.76
644.26	381.95
644.61	381.05
644.95	380.33
645.29	378.71
645.64	378.05
645.98	377.29
646.32	376.90
646.66	376.43
647.01	375.33
647.35	374.43
647.69	374.00
648.04	373.29
648.38	372.19
648.72	371.29
649.06	369.81
649.41	368.00
649.75	367.33
650.09	366.86
650.43	365.52
650.78	363.52
651.12	362.48
651.46	361.57
651.80	360.71
652.14	359.29
652.49	358.62
652.83	356.48
653.17	354.95
653.51	352.76
653.85	351.57
654.20	350.62
654.54	349.29
654.88	347.57
655.22	345.71
655.56	344.10
655.90	343.14
656.25	342.10
656.59	341.14
656.93	340.38
657.27	340.00
657.61	338.76
657.95	338.48
658.29	338.29
658.64	337.33
658.98	336.19
659.32	335.67
659.66	334.62
660.00	334.33
660.34	333.48
660.68	332.76
661.02	332.14
661.36	331.00
661.70	330.48
662.05	330.29
662.39	330.48
662.73	331.00
663.07	331.67
663.41	331.24
663.75	330.29
664.09	329.71
664.43	328.10
664.77	327.67
665.11	326.33
665.45	325.38
665.79	325.43
666.13	324.43
666.47	323.24
666.81	322.38
667.15	321.38
667.49	320.62
667.83	321.29
668.17	320.14
668.51	319.86
668.85	319.71
669.19	319.76
669.53	318.48
669.87	317.62
670.21	316.14
670.55	315.57
670.89	316.10
671.23	315.14
671.57	314.38
671.91	313.90
672.25	313.90
672.58	313.95
672.92	312.33
673.26	312.14
673.60	311.81
673.94	310.90
674.28	310.95
674.62	311.24
674.96	309.24
675.30	308.71
675.64	308.38
675.97	307.86
676.31	307.10
676.65	306.86
676.99	306.62
677.33	305.48
677.67	305.19
678.01	303.90
678.34	303.62
678.68	303.76
679.02	303.05
679.36	302.14
679.70	301.05
680.04	300.62
680.37	300.33
680.71	299.86
681.05	299.62
681.39	299.00
681.73	297.95
682.06	297.52
682.40	297.29
682.74	296.76
683.08	297.05
683.42	296.00
683.75	295.95
684.09	295.24
684.43	295.29
684.77	294.38
685.10	293.76
685.44	293.29
685.78	292.71
686.12	292.29
686.45	292.00
686.79	291.14
687.13	290.86
687.46	290.24
687.80	290.33
688.14	290.05
688.48	289.76
688.81	289.86
689.15	290.48
689.49	290.38
689.82	290.24
690.16	288.67
690.50	287.95
690.83	286.90
691.17	285.95
691.51	285.43
691.84	285.24
692.18	284.76
692.52	284.19
692.85	283.90
693.19	284.24
693.52	283.67
693.86	283.52
694.20	283.38
694.53	283.05
694.87	282.05
695.21	281.33
695.54	280.62
695.88	279.48
696.21	278.10
696.55	277.62
696.88	277.05
697.22	276.67
697.56	277.05
697.89	277.00
698.23	277.19
698.56	276.86
698.90	276.95
699.23	276.62
699.57	276.29
699.90	275.76
700.24	274.95
700.58	275.38
700.91	276.05
701.25	277.90
701.58	278.43
701.92	279.33
702.25	280.00
702.59	280.33
702.92	280.76
703.26	281.43
703.59	281.86
703.93	284.57
704.26	285.43
704.60	285.95
704.93	285.95
705.26	286.00
705.60	286.71
705.93	286.24
706.27	287.52
706.60	289.00
706.94	290.81
707.27	291.29
707.61	291.48
707.94	291.38
708.27	289.81
708.61	289.38
708.94	288.71
709.28	288.19
709.61	287.48
709.94	287.43
710.28	287.14
710.61	286.43
710.95	283.10
711.28	283.95
711.61	282.67
711.95	282.43
712.28	281.57
712.61	280.81
712.95	281.76
713.28	281.52
713.61	279.62
713.95	277.62
714.28	276.86
714.61	275.62
714.95	274.52
715.28	273.33
715.61	272.62
715.95	272.43
716.28	271.52
716.61	271.62
716.95	270.24
717.28	269.57
717.61	269.05
717.94	269.05
718.28	266.71
718.61	266.19
718.94	265.19
719.27	264.48
719.61	264.24
719.94	263.05
720.27	261.67
720.60	261.52
720.94	261.14
721.27	260.67
721.60	261.05
721.93	260.90
722.27	261.67
722.60	261.71
722.93	261.14
723.26	261.38
723.59	260.57
723.93	261.14
724.26	261.14
724.59	260.81
724.92	260.86
725.25	261.43
725.59	261.19
725.92	261.24
726.25	261.43
726.58	261.19
726.91	260.86
727.24	260.90
727.57	260.38
727.91	260.05
728.24	260.10
728.57	259.67
728.90	259.52
729.23	258.29
729.56	258.81
729.89	258.86
730.22	258.48
730.55	258.33
730.89	258.29
731.22	257.76
731.55	257.62
731.88	257.33
732.21	256.48
732.54	256.38
732.87	256.38
733.20	256.10
733.53	256.00
733.86	256.14
734.19	255.90
734.52	256.57
734.85	258.14
735.18	257.71
735.51	258.48
735.84	258.43
736.17	258.90
736.50	258.05
736.83	260.38
737.16	260.38
737.49	260.52
737.82	260.14
738.15	260.62
738.48	260.86
738.81	260.29
739.14	260.19
739.47	259.76
739.80	259.76
740.13	260.10
740.46	259.48
740.79	259.10
741.12	258.90
741.45	258.57
741.78	256.95
742.11	258.10
742.44	257.14
742.77	257.67
743.10	257.67
743.43	257.19
743.75	254.62
744.08	257.52
744.41	257.38
744.74	257.29
745.07	256.71
745.40	256.86
745.73	257.86
746.06	258.00
746.39	258.38
746.71	258.05
747.04	257.67
747.37	257.67
747.70	257.86
748.03	257.81
748.36	257.81
748.68	257.81
749.01	256.67
749.34	256.76
749.67	256.33
750.00	256.19
750.33	258.14
750.65	258.52
750.98	255.05
751.31	254.90
751.64	254.86
751.97	256.10
752.29	255.62
752.62	254.67
752.95	254.38
753.28	253.81
753.60	253.95
753.93	254.76
754.26	255.00
754.59	254.48
754.91	254.43
755.24	254.00
755.57	253.57
755.90	253.43
756.22	253.19
756.55	252.95
756.88	252.71
757.20	250.76
757.53	249.48
757.86	250.05
758.19	250.33
758.51	250.10
758.84	248.57
759.17	248.29
759.49	248.14
759.82	249.19
760.15	249.57
760.47	249.24
760.80	248.19
761.13	248.14
761.45	248.19
761.78	248.00
762.11	248.24
762.43	248.67
762.76	248.33
763.08	248.24
763.41	248.48
763.74	248.71
764.06	248.67
764.39	249.38
764.71	249.05
765.04	248.62
765.37	248.62
765.69	248.90
766.02	248.95
766.34	248.86
766.67	247.71
767.00	248.19
767.32	249.57
767.65	251.00
767.97	250.86
768.30	250.67
768.62	250.38
768.95	250.19
769.27	249.76
769.60	250.24
769.92	250.19
770.25	249.38
770.57	248.52
770.90	248.43
771.22	247.86
771.55	247.76
771.87	247.95
772.20	247.67
772.52	249.52
772.85	252.57
773.17	252.67
773.50	252.57
773.82	252.33
774.15	250.71
774.47	249.00
774.80	248.62
775.12	248.67
775.45	248.76
775.77	248.81
776.09	248.62
776.42	248.57
776.74	249.05
777.07	249.10
777.39	249.24
777.72	249.14
778.04	249.57
778.36	249.52
778.69	249.24
779.01	249.62
779.33	247.48
779.66	244.67
779.98	244.62
780.31	244.81
780.63	245.62
780.95	246.43
781.28	246.81
781.60	246.48
781.92	246.24
782.25	246.48
782.57	246.33
782.89	246.52
783.22	246.10
783.54	245.19
783.86	245.29
784.19	244.76
784.51	245.38
784.83	244.81
785.16	244.71
785.48	245.00
785.80	244.86
786.12	245.38
786.45	245.33
786.77	245.19
787.09	245.05
787.42	244.14
787.74	244.05
788.06	243.76
788.38	243.81
788.71	243.33
789.03	243.48
789.35	243.71
789.67	243.57
789.99	243.71
790.32	243.62
790.64	244.00
790.96	246.38
791.28	245.67
791.61	245.86
791.93	245.95
792.25	245.71
792.57	247.38
792.89	246.62
793.21	246.48
793.54	246.38
793.86	246.19
794.18	246.29
794.50	245.76
794.82	245.67
795.14	246.00
795.47	246.62
795.79	246.38
796.11	245.90
796.43	245.67
796.75	245.67
797.07	246.10
797.39	245.90
797.71	244.24
798.04	244.62
798.36	244.38
798.68	244.38
799.00	244.71
799.32	243.00
799.64	243.43
799.96	243.52
800.28	244.05
800.60	244.10
800.92	244.29
801.24	244.10
801.56	244.19
801.89	244.10
802.21	244.86
802.53	244.00
802.85	244.81
803.17	246.00
803.49	245.71
803.81	245.48
804.13	245.14
804.45	244.86
804.77	244.62
805.09	244.86
805.41	244.71
805.73	243.86
806.05	243.62
806.37	243.48
806.69	243.29
807.01	242.95
807.33	243.10
807.65	242.29
807.97	243.62
808.28	243.43
808.60	243.62
808.92	242.67
809.24	244.71
809.56	244.14
809.88	243.10
810.20	243.57
810.52	244.00
810.84	243.95
811.16	243.81
811.48	243.71
811.80	244.38
812.12	244.19
812.43	244.90
812.75	245.19
813.07	244.90
813.39	245.19
813.71	244.62
814.03	244.19
814.35	244.10
814.67	242.86
814.98	242.81
815.30	242.52
815.62	242.24
815.94	240.57
816.26	241.62
816.58	241.33
816.89	241.19
817.21	240.57
817.53	240.81
817.85	240.90
818.17	240.86
818.48	240.00
818.80	240.62
819.12	240.14
819.44	239.90
819.76	240.00
820.07	239.71
820.39	239.81
820.71	240.24
821.03	240.43
821.34	240.52
821.66	241.10
821.98	241.24
822.30	241.33
822.61	243.14
822.93	241.81
823.25	241.71
823.57	241.29
823.88	241.90
824.20	241.62
824.52	241.76
824.83	241.76
825.15	241.71
825.47	241.62
825.79	242.00
826.10	241.86
826.42	241.38
826.74	241.86
827.05	242.14
827.37	242.00
827.69	242.00
828.00	242.05
828.32	241.76
828.64	241.52
828.95	243.00
829.27	242.00
829.58	242.14
829.90	242.81
830.22	243.29
830.53	242.86
830.85	242.95
831.17	242.52
831.48	242.38
831.80	242.48
832.11	242.29
832.43	241.90
832.75	241.95
833.06	243.62
833.38	242.43
833.69	242.24
834.01	242.52
834.32	242.38
834.64	242.05
834.96	242.29
835.27	242.43
835.59	241.52
835.90	240.86
836.22	240.62
836.53	240.10
836.85	239.62
837.16	241.90
837.48	241.76
837.79	242.86
838.11	243.00
838.42	243.10
838.74	243.29
839.05	243.24
839.37	243.19
839.68	241.62
840.00	241.81
840.31	242.05
840.63	241.86
840.94	241.67
841.26	241.86
841.57	241.76
841.88	242.24
842.20	241.90
842.51	241.76
842.83	242.10
843.14	244.29
843.46	244.62
843.77	242.95
844.08	242.52
844.40	241.62
844.71	241.48
845.03	241.29
845.34	241.14
845.65	240.86
845.97	241.05
846.28	241.38
846.60	241.76
846.91	241.43
847.22	241.14
847.54	241.57
847.85	241.38
848.16	241.05
848.48	240.38
848.79	241.29
849.10	241.71
849.42	241.71
849.73	239.43
850.04	239.48
850.36	239.05
850.67	239.95
850.98	239.86
851.30	240.05
851.61	239.81
851.92	239.76
852.23	240.33
852.55	240.43
852.86	240.67
853.17	241.05
853.49	241.62
853.80	242.33
854.11	242.76
854.42	243.24
854.74	242.95
855.05	243.00
855.36	241.57
855.67	241.62
855.99	241.52
856.30	244.48
856.61	244.29
856.92	243.95
857.23	243.52
857.55	243.33
857.86	243.14
858.17	243.67
858.48	242.95
858.79	242.67
859.11	242.71
859.42	242.33
859.73	241.90
860.04	241.62
860.35	240.76
860.66	239.52
860.98	239.33
861.29	239.67
861.60	239.38
861.91	239.90
862.22	239.62
862.53	239.38
862.84	236.43
863.16	237.00
863.47	236.76
863.78	236.81
864.09	237.14
864.40	237.24
864.71	236.95
865.02	237.76
865.33	237.52
865.64	237.05
865.95	237.19
866.27	239.10
866.58	238.81
866.89	239.43
867.20	239.76
867.51	239.48
867.82	239.48
868.13	240.29
868.44	240.00
868.75	240.33
869.06	240.38
869.37	240.90
869.68	240.14
869.99	240.81
870.30	241.00
870.61	241.19
870.92	240.90
871.23	240.90
871.54	240.90
871.85	241.14
872.16	241.33
872.47	241.00
872.78	238.95
873.09	239.29
873.40	238.57
873.71	238.76
874.02	238.90
874.33	238.57
874.64	237.67
874.95	238.10
875.26	237.76
875.56	237.86
875.87	237.33
876.18	237.19
876.49	239.24
876.80	239.05
877.11	238.62
877.42	239.00
877.73	239.00
878.04	238.48
878.35	238.71
878.66	239.05
878.96	239.14
879.27	239.24
879.58	239.19
879.89	239.33
880.20	240.14
880.51	240.00
880.82	239.86
881.12	240.48
881.43	239.95
881.74	239.48
882.05	239.19
882.36	239.62
882.67	239.86
882.97	237.19
883.28	237.05
883.59	236.81
883.90	236.76
884.21	236.90
884.51	236.95
884.82	236.71
885.13	236.52
885.44	236.29
885.74	236.38
886.05	236.38
886.36	236.33
886.67	235.24
886.98	236.29
887.28	236.76
887.59	236.62
887.90	236.95
888.20	237.14
888.51	238.05
888.82	237.52
889.13	237.52
889.43	239.62
889.74	239.71
890.05	240.00
890.35	239.95
890.66	239.86
890.97	239.90
891.28	239.76
891.58	239.81
891.89	240.05
892.20	239.52
892.50	239.19
892.81	239.00
893.12	239.00
893.42	238.10
893.73	238.19
894.04	238.10
894.34	238.24
894.65	238.14
894.95	237.57
895.26	237.81
895.57	238.86
895.87	236.62
896.18	236.95
896.48	237.00
896.79	237.00
897.10	237.38
897.40	237.33
897.71	237.62
898.01	237.38
898.32	237.76
898.63	238.00
898.93	238.19
899.24	238.33
899.54	237.86
899.85	237.81
900.15	237.67
900.46	237.71
900.76	237.76
901.07	237.43
901.38	237.33
901.68	237.71
901.99	236.67
902.29	236.95
902.60	236.76
902.90	236.43
903.21	236.29
903.51	235.95
903.82	236.29
904.12	236.33
904.43	236.38
904.73	236.19
905.03	236.38
905.34	238.76
905.64	238.71
905.95	239.43
906.25	239.33
906.56	239.43
906.86	239.62
907.17	239.14
907.47	239.48
907.77	239.29
908.08	238.52
908.38	238.95
908.69	239.19
908.99	239.43
909.30	239.71
909.60	239.76
909.90	240.10
910.21	239.71
910.51	239.19
910.81	239.19
911.12	239.38
911.42	239.48
911.73	236.90
912.03	237.19
912.33	237.67
912.64	237.48
912.94	237.14
913.24	236.57
913.55	236.86
913.85	236.57
914.15	236.95
914.46	237.33
914.76	236.90
915.06	236.81
915.37	236.43
915.67	236.24
915.97	236.38
916.27	235.86
916.58	236.10
916.88	235.81
917.18	235.86
917.49	237.43
917.79	237.19
918.09	237.81
918.39	238.48
918.70	238.00
919.00	238.33
919.30	239.52
919.60	239.67
919.91	239.19
920.21	239.81
920.51	239.24
920.81	239.29
921.12	239.71
921.42	239.62
921.72	239.86
922.02	239.67
922.32	239.52
922.63	239.57
922.93	241.10
923.23	241.71
923.53	241.29
923.83	239.76
924.13	240.38
924.44	240.29
924.74	240.48
925.04	241.43
925.34	241.33
925.64	240.00
925.94	240.00
926.24	241.38
926.55	241.00
926.85	241.43
927.15	241.43
927.45	241.14
927.75	241.24
928.05	241.00
928.35	241.14
928.65	241.81
928.95	242.00
929.26	240.62
929.56	241.00
929.86	241.81
930.16	241.33
930.46	241.00
930.76	240.95
931.06	239.62
931.36	238.67
931.66	239.00
931.96	239.62
932.26	239.76
932.56	238.71
932.86	239.10
933.16	239.05
933.46	238.62
933.76	238.43
934.06	239.05
934.36	240.10
934.66	239.95
934.96	239.48
935.26	239.48
935.56	239.38
935.86	238.81
936.16	238.19
936.46	238.10
936.76	237.90
937.06	237.67
937.36	238.14
937.66	238.19
937.96	237.86
938.26	237.52
938.56	237.33
938.86	237.57
939.16	237.57
939.46	237.62
939.76	237.95
940.06	238.05
940.35	237.10
940.65	235.90
940.95	236.24
941.25	235.90
941.55	235.90
941.85	236.33
942.15	236.67
942.45	237.33
942.75	237.52
943.04	237.67
943.34	237.86
943.64	237.57
943.94	237.33
944.24	237.48
944.54	237.52
944.84	237.48
945.13	237.29
945.43	236.86
945.73	236.90
946.03	237.00
946.33	236.90
946.62	236.81
946.92	236.86
947.22	237.19
947.52	237.24
947.82	237.38
948.11	237.00
948.41	236.48
948.71	235.52
949.01	235.76
949.31	235.67
949.60	235.43
949.90	235.95
950.20	235.86
950.50	235.76
950.79	235.57
951.09	236.00
951.39	235.81
951.69	235.86
951.98	236.33
952.28	236.29
952.58	236.38
952.87	236.48
953.17	236.86
953.47	236.43
953.76	236.67
954.06	236.05
954.36	235.71
954.66	235.86
954.95	237.00
955.25	237.05
955.55	237.05
955.84	236.81
956.14	236.86
956.44	237.10
956.73	237.05
957.03	237.19
957.32	237.10
957.62	236.86
957.92	237.38
958.21	237.10
958.51	239.62
958.81	239.90
959.10	240.24
959.40	240.48
959.69	240.52
959.99	240.81
960.29	241.29
960.58	241.43
960.88	242.43
961.17	241.67
961.47	241.67
961.76	241.38
962.06	242.24
962.36	241.86
962.65	242.24
962.95	242.43
963.24	242.29
963.54	242.19
963.83	242.67
964.13	242.48
964.42	241.90
964.72	240.24
965.01	239.86
965.31	239.81
965.60	239.52
965.90	241.19
966.19	240.81
966.49	240.81
966.78	240.71
967.08	240.29
967.37	240.67
967.67	240.10
967.96	240.76
968.26	240.52
968.55	241.05
968.85	240.81
969.14	240.52
969.43	240.71
969.73	240.62
970.02	240.38
970.32	240.24
970.61	240.38
970.91	239.48
971.20	239.29
971.49	239.10
971.79	239.05
972.08	237.24
972.38	237.19
972.67	236.95
972.96	237.38
973.26	237.14
973.55	237.81
973.85	237.76
974.14	237.33
974.43	237.19
974.73	236.52
975.02	236.33
975.31	236.33
975.61	236.14
975.90	236.38
976.19	236.10
976.49	236.62
976.78	236.62
977.07	236.48
977.37	237.00
977.66	236.76
977.95	236.81
978.24	237.10
978.54	237.81
978.83	237.86
979.12	237.62
979.42	237.24
979.71	236.81
980.00	236.90
980.29	236.95
980.59	236.71
980.88	237.57
981.17	237.48
981.46	237.67
981.76	237.67
982.05	238.43
982.34	238.57
982.63	238.62
982.93	238.81
983.22	239.90
983.51	240.00
983.80	240.67
984.09	240.67
984.39	240.43
984.68	239.86
984.97	239.90
985.26	239.52
985.55	239.95
985.85	239.33
986.14	240.00
986.43	240.33
986.72	239.95
987.01	239.19
987.30	239.14
987.59	238.90
987.89	239.19
988.18	238.14
988.47	238.05
988.76	237.43
989.05	237.38
989.34	237.05
989.63	237.24
989.92	237.00
990.22	236.86
990.51	236.81
990.80	236.62
991.09	236.90
991.38	237.33
991.67	237.00
991.96	237.00
992.25	236.86
992.54	236.38
992.83	236.81
993.12	237.05
993.41	237.33
993.70	238.48
993.99	238.57
994.28	238.95
994.58	239.24
994.87	239.29
995.16	238.90
995.45	238.19
995.74	237.52
996.03	237.86
996.32	238.14
996.61	238.48
996.90	238.52
997.19	238.05
997.48	238.29
997.77	238.19
998.06	238.24
998.34	238.29
998.63	238.19
998.92	238.10
999.21	238.00
999.50	238.24
999.79	237.19
1000.08	237.29
1000.37	237.33
1000.66	237.43
1000.95	237.86
1001.24	238.33
1001.53	238.71
1001.82	238.48
1002.11	237.81
1002.40	238.10
1002.68	238.86
1002.97	240.62
1003.26	240.71
1003.55	239.86
1003.84	240.00
1004.13	240.90
1004.42	240.29
1004.71	240.57
1004.99	240.38
1005.28	240.52
1005.57	240.38
1005.86	240.24
1006.15	239.67
1006.44	239.10
1006.72	239.38
1007.01	238.81
1007.30	238.76
1007.59	238.57
1007.88	238.62
1008.17	238.67
1008.45	238.05
1008.74	236.90
1009.03	235.43
1009.32	235.24
1009.60	235.38
1009.89	235.05
1010.18	234.10
1010.47	234.38
1010.76	234.29
1011.04	234.48
1011.33	234.57
1011.62	234.67
1011.91	234.90
1012.19	235.38
1012.48	235.57
1012.77	235.24
1013.05	236.81
1013.34	236.76
1013.63	236.81
1013.92	237.14
1014.20	237.10
1014.49	237.43
1014.78	237.71
1015.06	237.14
1015.35	237.00
1015.64	237.57
1015.92	237.81
1016.21	237.76
1016.50	237.52
1016.78	237.90
1017.07	237.71
1017.36	237.52
1017.64	237.48
1017.93	237.57
1018.22	237.00
1018.50	236.81
1018.79	236.67
1019.08	235.05
1019.36	235.43
1019.65	235.14
1019.93	235.67
1020.22	236.10
1020.51	237.00
1020.79	236.76
1021.08	228.00
1021.36	230.00
1021.65	234.00
1021.94	232.00
1022.22	245.00
1022.51	232.00
1022.79	248.00
1023.08	240.00
1023.36	264.00
1023.65	231.00
>>>>>End Processed Spectral Data<<<<<
