SpectraSuite Data File
++++++++++++++++++++++++++++++++++++
Date: Wed Nov 07 18:32:39 EST 2012
User: group
Dark Spectrum Present: No
Reference Spectrum Present: No
Number of Sampled Component Spectra: 1
Spectrometers: USB2E7196
Integration Time (usec): 1000000 (USB2E7196)
Spectra Averaged: 1 (USB2E7196)
Boxcar Smoothing: 10 (USB2E7196)
Correct for Electrical Dark: No (USB2E7196)
Strobe/Lamp Enabled: No (USB2E7196)
Correct for Detector Non-linearity: No (USB2E7196)
Correct for Stray Light: No (USB2E7196)
Number of Pixels in Processed Spectrum: 2048
>>>>>Begin Processed Spectral Data<<<<<
339.09	0.00
339.48	217.00
339.86	224.00
340.24	225.00
340.63	226.00
341.01	262.00
341.39	226.00
341.78	234.00
342.16	240.00
342.54	235.00
342.93	223.00
343.31	233.90
343.69	234.38
344.07	234.52
344.46	235.05
344.84	235.52
345.22	234.05
345.60	234.48
345.99	234.90
346.37	234.71
346.75	234.57
347.13	234.57
347.52	234.90
347.90	235.76
348.28	235.71
348.66	236.33
349.05	235.57
349.43	235.81
349.81	236.00
350.19	235.90
350.57	235.86
350.96	236.38
351.34	236.76
351.72	237.10
352.10	237.48
352.48	237.14
352.87	236.81
353.25	236.76
353.63	236.52
354.01	236.29
354.39	236.33
354.77	236.19
355.15	236.57
355.54	236.05
355.92	235.10
356.30	235.19
356.68	236.48
357.06	236.29
357.44	236.10
357.82	236.14
358.20	236.33
358.58	236.62
358.97	236.52
359.35	236.81
359.73	237.38
360.11	237.24
360.49	237.33
360.87	237.43
361.25	237.71
361.63	238.67
362.01	238.57
362.39	238.43
362.77	238.67
363.15	238.71
363.53	238.86
363.91	239.19
364.29	239.19
364.67	236.76
365.05	237.10
365.43	237.24
365.81	237.43
366.19	238.43
366.57	239.10
366.95	239.00
367.33	238.81
367.71	238.38
368.09	238.86
368.47	239.19
368.85	239.57
369.23	240.14
369.61	239.29
369.99	240.00
370.37	240.48
370.75	241.71
371.13	241.33
371.51	240.86
371.89	241.00
372.27	241.14
372.65	241.48
373.03	241.90
373.41	242.00
373.78	241.71
374.16	240.43
374.54	239.67
374.92	239.29
375.30	239.24
375.68	239.14
376.06	239.14
376.44	238.95
376.82	238.81
377.19	238.71
377.57	238.86
377.95	238.33
378.33	237.86
378.71	236.33
379.09	237.00
379.47	237.52
379.84	237.43
380.22	237.33
380.60	237.14
380.98	236.62
381.36	236.62
381.73	236.38
382.11	236.95
382.49	237.29
382.87	237.00
383.25	237.05
383.62	239.71
384.00	239.48
384.38	239.38
384.76	239.90
385.13	241.05
385.51	240.81
385.89	240.62
386.27	241.24
386.64	241.57
387.02	241.00
387.40	240.81
387.78	241.10
388.15	241.38
388.53	241.14
388.91	241.57
389.29	241.38
389.66	242.00
390.04	242.05
390.42	242.38
390.79	242.67
391.17	242.52
391.55	239.81
391.92	240.00
392.30	240.14
392.68	239.71
393.05	239.38
393.43	239.81
393.81	239.90
394.18	239.14
394.56	239.48
394.94	240.05
395.31	239.76
395.69	240.38
396.06	240.48
396.44	240.90
396.82	240.57
397.19	242.00
397.57	241.81
397.95	241.95
398.32	241.33
398.70	241.71
399.07	242.43
399.45	242.76
399.82	242.48
400.20	242.52
400.58	242.81
400.95	242.10
401.33	242.76
401.70	244.71
402.08	245.05
402.45	245.19
402.83	246.14
403.20	246.52
403.58	246.24
403.95	246.57
404.33	247.10
404.71	247.48
405.08	248.38
405.46	248.67
405.83	249.29
406.21	249.71
406.58	250.14
406.96	250.19
407.33	250.67
407.70	251.57
408.08	254.10
408.45	254.76
408.83	255.67
409.20	255.38
409.58	254.33
409.95	255.67
410.33	256.52
410.70	256.33
411.08	257.76
411.45	258.86
411.82	259.81
412.20	261.52
412.57	264.19
412.95	263.62
413.32	265.38
413.69	266.57
414.07	268.67
414.44	270.86
414.82	273.19
415.19	275.24
415.56	277.48
415.94	278.57
416.31	281.48
416.68	284.48
417.06	288.38
417.43	291.95
417.81	295.29
418.18	299.05
418.55	302.62
418.93	306.62
419.30	310.90
419.67	315.67
420.04	320.10
420.42	324.38
420.79	332.33
421.16	338.14
421.54	345.38
421.91	351.05
422.28	357.29
422.66	364.19
423.03	373.00
423.40	379.95
423.77	387.05
424.15	394.14
424.52	401.48
424.89	410.38
425.26	418.19
425.64	426.10
426.01	434.76
426.38	444.05
426.75	453.29
427.13	462.43
427.50	471.76
427.87	481.43
428.24	491.81
428.61	499.76
428.99	511.29
429.36	521.76
429.73	533.43
430.10	544.90
430.47	556.86
430.85	568.10
431.22	581.24
431.59	597.05
431.96	610.81
432.33	625.95
432.70	640.33
433.08	657.00
433.45	672.62
433.82	687.57
434.19	704.29
434.56	721.00
434.93	737.05
435.30	752.67
435.68	770.90
436.05	786.71
436.42	804.14
436.79	819.76
437.16	836.05
437.53	852.62
437.90	870.05
438.27	887.00
438.64	903.00
439.01	918.90
439.38	930.48
439.75	943.43
440.13	958.19
440.50	971.19
440.87	982.33
441.24	994.10
441.61	1007.57
441.98	1017.14
442.35	1028.33
442.72	1039.67
443.09	1051.62
443.46	1056.76
443.83	1060.95
444.20	1063.57
444.57	1067.10
444.94	1068.76
445.31	1071.29
445.68	1076.19
446.05	1074.71
446.42	1071.62
446.79	1068.38
447.16	1064.52
447.53	1061.71
447.90	1054.10
448.27	1045.81
448.64	1035.95
449.01	1028.29
449.37	1015.62
449.74	1003.38
450.11	990.57
450.48	974.71
450.85	957.95
451.22	944.81
451.59	932.48
451.96	919.86
452.33	905.00
452.70	890.24
453.07	872.76
453.43	851.10
453.80	834.76
454.17	818.95
454.54	803.86
454.91	789.10
455.28	773.67
455.65	758.38
456.02	748.71
456.38	735.95
456.75	720.95
457.12	707.71
457.49	695.14
457.86	681.29
458.23	672.29
458.59	661.81
458.96	650.62
459.33	640.38
459.70	630.90
460.07	622.62
460.43	613.52
460.80	605.67
461.17	598.29
461.54	590.57
461.91	583.38
462.27	576.19
462.64	569.33
463.01	562.43
463.38	557.29
463.74	546.38
464.11	540.62
464.48	535.33
464.85	530.33
465.21	526.86
465.58	522.52
465.95	515.95
466.32	510.81
466.68	505.76
467.05	501.29
467.42	496.43
467.78	491.00
468.15	487.57
468.52	484.52
468.88	480.24
469.25	476.48
469.62	474.14
469.98	470.14
470.35	466.76
470.72	463.19
471.08	458.71
471.45	456.67
471.82	454.33
472.18	450.95
472.55	448.71
472.92	445.24
473.28	442.14
473.65	439.33
474.02	437.10
474.38	435.29
474.75	433.29
475.11	431.43
475.48	430.43
475.85	428.10
476.21	426.38
476.58	425.71
476.94	424.71
477.31	423.14
477.67	421.76
478.04	421.14
478.41	420.81
478.77	422.19
479.14	420.95
479.50	420.67
479.87	420.62
480.23	420.10
480.60	419.86
480.96	420.52
481.33	422.19
481.69	422.29
482.06	422.76
482.42	423.67
482.79	424.62
483.15	425.14
483.52	426.33
483.88	426.67
484.25	427.14
484.61	428.19
484.98	428.81
485.34	430.90
485.71	432.19
486.07	433.33
486.44	433.10
486.80	434.86
487.17	435.62
487.53	437.76
487.90	439.52
488.26	442.57
488.62	444.48
488.99	445.71
489.35	448.00
489.72	449.67
490.08	451.43
490.44	452.67
490.81	454.90
491.17	456.71
491.54	459.14
491.90	461.90
492.26	463.81
492.63	466.38
492.99	468.43
493.36	471.29
493.72	474.33
494.08	477.05
494.45	479.81
494.81	484.24
495.17	486.90
495.54	490.00
495.90	492.24
496.26	495.57
496.63	498.76
496.99	502.43
497.35	506.62
497.72	510.33
498.08	514.62
498.44	518.71
498.80	523.48
499.17	527.71
499.53	531.71
499.89	537.05
500.26	541.76
500.62	546.52
500.98	551.00
501.34	555.57
501.71	560.95
502.07	565.76
502.43	569.90
502.79	575.10
503.16	580.29
503.52	586.19
503.88	590.57
504.24	596.05
504.60	600.86
504.97	606.33
505.33	611.19
505.69	617.33
506.05	622.24
506.41	627.52
506.78	632.86
507.14	637.86
507.50	643.62
507.86	649.71
508.22	656.29
508.59	661.95
508.95	667.86
509.31	673.19
509.67	678.86
510.03	684.05
510.39	688.90
510.75	694.29
511.12	699.10
511.48	705.14
511.84	710.14
512.20	715.38
512.56	719.67
512.92	725.52
513.28	730.19
513.64	735.38
514.00	740.33
514.37	744.86
514.73	750.38
515.09	754.38
515.45	758.29
515.81	761.57
516.17	765.86
516.53	769.43
516.89	772.90
517.25	777.05
517.61	781.62
517.97	786.00
518.33	789.57
518.69	794.24
519.05	797.62
519.41	801.24
519.77	806.38
520.13	811.33
520.49	814.29
520.85	817.24
521.21	821.62
521.57	824.71
521.93	827.86
522.29	829.76
522.65	832.33
523.01	834.38
523.37	836.76
523.73	838.95
524.09	841.57
524.45	844.19
524.81	846.48
525.17	849.29
525.53	851.10
525.89	853.62
526.25	854.86
526.61	855.76
526.97	857.38
527.33	858.19
527.68	860.67
528.04	861.81
528.40	863.33
528.76	863.76
529.12	864.76
529.48	866.57
529.84	868.48
530.20	870.71
530.56	873.62
530.91	875.24
531.27	876.14
531.63	877.57
531.99	878.19
532.35	878.67
532.71	878.43
533.07	880.38
533.42	883.90
533.78	884.62
534.14	886.71
534.50	887.81
534.86	889.52
535.21	888.76
535.57	891.05
535.93	891.14
536.29	893.62
536.65	894.86
537.00	895.52
537.36	896.67
537.72	897.86
538.08	899.95
538.44	902.10
538.79	905.00
539.15	906.43
539.51	909.24
539.87	912.33
540.22	914.38
540.58	916.14
540.94	916.81
541.29	918.95
541.65	921.62
542.01	923.95
542.37	925.14
542.72	926.62
543.08	926.62
543.44	927.43
543.79	925.76
544.15	927.14
544.51	928.24
544.87	927.76
545.22	925.76
545.58	923.38
545.94	921.33
546.29	919.05
546.65	917.29
547.01	914.24
547.36	911.29
547.72	909.14
548.07	906.33
548.43	902.24
548.79	899.48
549.14	895.38
549.50	892.10
549.86	888.57
550.21	885.24
550.57	883.14
550.92	881.29
551.28	879.33
551.64	875.90
551.99	873.14
552.35	870.95
552.70	869.14
553.06	867.24
553.41	864.90
553.77	863.71
554.13	861.57
554.48	860.48
554.84	859.14
555.19	857.14
555.55	857.38
555.90	855.81
556.26	852.90
556.61	850.81
556.97	847.71
557.32	845.48
557.68	844.24
558.03	842.62
558.39	840.71
558.74	839.29
559.10	836.90
559.45	834.95
559.81	833.71
560.16	831.29
560.52	828.95
560.87	828.19
561.23	826.14
561.58	826.29
561.94	824.48
562.29	821.71
562.64	820.24
563.00	816.43
563.35	814.90
563.71	813.05
564.06	811.52
564.42	810.52
564.77	809.57
565.12	808.05
565.48	808.14
565.83	806.90
566.19	805.05
566.54	803.57
566.89	801.00
567.25	800.24
567.60	800.62
567.96	802.10
568.31	801.43
568.66	800.43
569.02	797.43
569.37	795.52
569.72	795.19
570.08	793.90
570.43	792.71
570.78	791.19
571.14	790.86
571.49	789.76
571.84	788.62
572.20	787.10
572.55	785.19
572.90	781.52
573.26	779.95
573.61	778.90
573.96	778.71
574.31	777.90
574.67	776.05
575.02	774.38
575.37	770.24
575.72	767.38
576.08	765.33
576.43	764.10
576.78	762.43
577.13	760.48
577.49	758.95
577.84	757.90
578.19	756.57
578.54	755.14
578.90	753.76
579.25	752.38
579.60	751.00
579.95	749.86
580.30	749.57
580.66	748.52
581.01	746.81
581.36	744.57
581.71	742.95
582.06	742.57
582.42	740.76
582.77	739.71
583.12	738.90
583.47	737.48
583.82	736.19
584.17	735.81
584.53	735.19
584.88	732.95
585.23	731.29
585.58	729.05
585.93	727.00
586.28	725.71
586.63	723.86
586.98	722.10
587.34	720.14
587.69	716.81
588.04	713.48
588.39	710.76
588.74	708.57
589.09	707.62
589.44	703.05
589.79	700.48
590.14	697.43
590.49	693.90
590.84	690.90
591.19	687.57
591.54	683.57
591.89	679.43
592.25	679.19
592.60	675.38
592.95	673.10
593.30	670.52
593.65	667.00
594.00	663.52
594.35	667.19
594.70	664.00
595.05	661.38
595.40	659.62
595.75	657.14
596.10	653.90
596.45	650.05
596.80	647.62
597.15	644.67
597.50	641.52
597.85	639.57
598.19	636.29
598.54	634.24
598.89	631.71
599.24	629.52
599.59	624.67
599.94	622.19
600.29	619.29
600.64	616.38
600.99	614.48
601.34	612.62
601.69	603.14
602.04	600.76
602.39	598.14
602.74	595.62
603.08	593.05
603.43	592.19
603.78	589.90
604.13	587.90
604.48	586.38
604.83	585.67
605.18	584.52
605.53	585.76
605.87	586.62
606.22	590.00
606.57	593.71
606.92	598.76
607.27	604.38
607.62	609.90
607.96	615.24
608.31	619.43
608.66	623.38
609.01	627.14
609.36	630.29
609.70	633.62
610.05	636.67
610.40	639.62
610.75	640.57
611.10	643.38
611.44	644.90
611.79	644.95
612.14	645.52
612.49	644.19
612.83	640.95
613.18	637.38
613.53	631.71
613.88	625.24
614.22	616.43
614.57	608.19
614.92	599.62
615.27	592.00
615.61	584.38
615.96	577.57
616.31	570.52
616.65	565.19
617.00	558.81
617.35	552.29
617.70	546.29
618.04	541.71
618.39	535.67
618.74	531.57
619.08	527.14
619.43	522.81
619.78	519.29
620.12	516.52
620.47	513.57
620.82	511.14
621.16	508.10
621.51	507.52
621.85	504.52
622.20	502.86
622.55	500.00
622.89	497.24
623.24	494.86
623.59	492.76
623.93	490.43
624.28	488.38
624.62	489.10
624.97	488.57
625.32	486.10
625.66	484.52
626.01	482.19
626.35	481.29
626.70	479.52
627.04	478.81
627.39	477.76
627.73	476.90
628.08	474.76
628.43	472.29
628.77	469.14
629.12	467.33
629.46	464.81
629.81	462.67
630.15	460.90
630.50	458.62
630.84	456.76
631.19	454.14
631.53	452.29
631.88	447.00
632.22	443.19
632.57	441.38
632.91	438.86
633.26	437.00
633.60	434.38
633.95	431.43
634.29	427.86
634.64	424.62
634.98	421.43
635.32	419.43
635.67	418.19
636.01	416.43
636.36	414.43
636.70	412.62
637.05	410.86
637.39	408.67
637.73	407.24
638.08	405.76
638.42	403.71
638.77	402.14
639.11	400.67
639.45	399.33
639.80	396.86
640.14	395.48
640.49	393.48
640.83	392.10
641.17	391.24
641.52	389.86
641.86	388.57
642.20	388.29
642.55	386.67
642.89	385.14
643.23	383.57
643.58	383.33
643.92	382.14
644.26	381.05
644.61	380.38
644.95	379.52
645.29	378.05
645.64	378.10
645.98	376.81
646.32	377.00
646.66	375.90
647.01	375.33
647.35	374.19
647.69	373.52
648.04	372.33
648.38	371.05
648.72	370.14
649.06	369.24
649.41	367.05
649.75	366.19
650.09	365.86
650.43	364.67
650.78	362.76
651.12	361.48
651.46	360.14
651.80	359.05
652.14	357.48
652.49	357.38
652.83	355.67
653.17	354.62
653.51	352.48
653.85	352.05
654.20	350.71
654.54	349.52
654.88	347.52
655.22	346.19
655.56	344.95
655.90	344.43
656.25	343.62
656.59	342.67
656.93	341.62
657.27	341.00
657.61	340.19
657.95	339.57
658.29	338.67
658.64	338.81
658.98	338.00
659.32	337.14
659.66	335.81
660.00	335.14
660.34	334.48
660.68	334.05
661.02	332.67
661.36	331.86
661.70	331.43
662.05	331.05
662.39	331.14
662.73	331.48
663.07	332.14
663.41	331.71
663.75	330.86
664.09	330.52
664.43	329.24
664.77	328.48
665.11	327.48
665.45	326.90
665.79	326.48
666.13	325.76
666.47	325.05
666.81	324.24
667.15	323.29
667.49	322.48
667.83	322.33
668.17	321.43
668.51	321.05
668.85	320.57
669.19	321.52
669.53	320.38
669.87	318.81
670.21	316.67
670.55	315.81
670.89	316.52
671.23	315.48
671.57	315.00
671.91	314.81
672.25	314.19
672.58	314.76
672.92	313.05
673.26	312.48
673.60	311.86
673.94	311.10
674.28	310.62
674.62	310.71
674.96	309.86
675.30	309.95
675.64	309.62
675.97	308.57
676.31	307.14
676.65	306.71
676.99	307.10
677.33	306.33
677.67	305.81
678.01	304.00
678.34	304.19
678.68	304.05
679.02	303.52
679.36	302.95
679.70	301.43
680.04	301.38
680.37	301.05
680.71	300.43
681.05	300.24
681.39	299.43
681.73	298.57
682.06	298.05
682.40	297.62
682.74	297.38
683.08	298.24
683.42	297.67
683.75	297.38
684.09	296.14
684.43	295.81
684.77	295.19
685.10	295.29
685.44	294.81
685.78	294.43
686.12	293.67
686.45	293.67
686.79	293.14
687.13	293.05
687.46	292.38
687.80	292.71
688.14	291.81
688.48	291.95
688.81	291.52
689.15	291.95
689.49	291.19
689.82	290.52
690.16	289.00
690.50	288.29
690.83	287.86
691.17	286.95
691.51	286.67
691.84	286.43
692.18	285.86
692.52	284.95
692.85	284.67
693.19	285.43
693.52	285.00
693.86	284.43
694.20	283.76
694.53	283.67
694.87	282.95
695.21	282.57
695.54	282.14
695.88	281.48
696.21	280.05
696.55	279.67
696.88	279.43
697.22	279.00
697.56	279.19
697.89	278.38
698.23	278.62
698.56	278.00
698.90	278.10
699.23	277.43
699.57	277.48
699.90	276.48
700.24	275.52
700.58	275.71
700.91	276.24
701.25	278.33
701.58	279.33
701.92	279.86
702.25	280.38
702.59	280.76
702.92	281.33
703.26	282.14
703.59	282.90
703.93	285.10
704.26	286.14
704.60	286.95
704.93	288.00
705.26	288.48
705.60	289.81
705.93	289.57
706.27	290.76
706.60	291.57
706.94	293.33
707.27	293.52
707.61	293.33
707.94	293.05
708.27	291.24
708.61	290.38
708.94	290.33
709.28	290.10
709.61	289.00
709.94	288.67
710.28	287.90
710.61	287.38
710.95	284.81
711.28	285.52
711.61	284.00
711.95	283.57
712.28	282.43
712.61	281.10
712.95	281.76
713.28	281.90
713.61	280.43
713.95	278.62
714.28	278.05
714.61	276.90
714.95	276.05
715.28	274.62
715.61	273.57
715.95	272.71
716.28	271.62
716.61	271.57
716.95	270.24
717.28	269.57
717.61	268.81
717.94	268.14
718.28	265.76
718.61	265.19
718.94	264.05
719.27	263.90
719.61	263.62
719.94	262.52
720.27	260.81
720.60	260.38
720.94	259.86
721.27	259.52
721.60	259.86
721.93	259.62
722.27	260.48
722.60	260.52
722.93	260.14
723.26	260.43
723.59	259.62
723.93	260.67
724.26	260.86
724.59	260.10
724.92	260.10
725.25	260.71
725.59	260.86
725.92	260.90
726.25	260.67
726.58	260.62
726.91	260.38
727.24	260.48
727.57	260.29
727.91	260.05
728.24	260.29
728.57	259.95
728.90	260.24
729.23	259.24
729.56	260.33
729.89	260.24
730.22	259.76
730.55	260.10
730.89	259.43
731.22	259.00
731.55	259.19
731.88	259.05
732.21	258.33
732.54	257.57
732.87	257.81
733.20	257.86
733.53	257.57
733.86	257.52
734.19	257.67
734.52	258.29
734.85	259.86
735.18	259.10
735.51	259.76
735.84	260.05
736.17	260.71
736.50	259.33
736.83	262.10
737.16	262.19
737.49	262.10
737.82	262.05
738.15	262.52
738.48	262.76
738.81	262.86
739.14	262.52
739.47	262.86
739.80	262.38
740.13	262.62
740.46	262.24
740.79	261.90
741.12	261.33
741.45	260.76
741.78	259.29
742.11	259.81
742.44	259.10
742.77	259.05
743.10	258.24
743.43	258.10
743.75	255.33
744.08	258.29
744.41	258.14
744.74	257.81
745.07	257.00
745.40	257.19
745.73	257.86
746.06	258.00
746.39	257.67
746.71	257.24
747.04	256.62
747.37	256.76
747.70	256.95
748.03	256.95
748.36	257.00
748.68	256.67
749.01	255.95
749.34	255.81
749.67	255.24
750.00	255.76
750.33	257.38
750.65	257.48
750.98	254.24
751.31	254.24
751.64	254.33
751.97	255.90
752.29	255.38
752.62	254.38
752.95	254.24
753.28	254.05
753.60	254.48
753.93	254.71
754.26	254.62
754.59	253.81
754.91	253.33
755.24	253.00
755.57	253.10
755.90	253.10
756.22	252.86
756.55	252.67
756.88	251.90
757.20	249.90
757.53	249.19
757.86	249.48
758.19	249.62
758.51	249.62
758.84	247.76
759.17	247.71
759.49	247.76
759.82	248.86
760.15	249.05
760.47	248.48
760.80	248.00
761.13	248.43
761.45	248.10
761.78	248.24
762.11	248.62
762.43	248.43
762.76	248.24
763.08	248.29
763.41	248.43
763.74	248.86
764.06	248.90
764.39	248.81
764.71	248.57
765.04	248.05
765.37	247.52
765.69	247.76
766.02	247.33
766.34	246.38
766.67	244.86
767.00	245.62
767.32	247.05
767.65	248.57
767.97	248.19
768.30	248.86
768.62	248.71
768.95	248.29
769.27	247.90
769.60	248.48
769.92	248.29
770.25	247.90
770.57	247.29
770.90	247.05
771.22	246.67
771.55	246.33
771.87	246.38
772.20	246.29
772.52	248.33
772.85	251.10
773.17	251.62
773.50	251.90
773.82	251.24
774.15	249.95
774.47	248.19
774.80	247.62
775.12	247.14
775.45	247.24
775.77	247.05
776.09	247.19
776.42	246.86
776.74	247.48
777.07	247.33
777.39	247.33
777.72	247.43
778.04	248.00
778.36	247.86
778.69	247.90
779.01	248.29
779.33	245.71
779.66	243.24
779.98	243.19
780.31	243.38
780.63	244.29
780.95	244.81
781.28	244.71
781.60	244.90
781.92	244.95
782.25	244.67
782.57	244.71
782.89	244.71
783.22	244.52
783.54	243.95
783.86	244.05
784.19	243.90
784.51	244.38
784.83	244.19
785.16	244.24
785.48	244.24
785.80	243.90
786.12	244.48
786.45	244.29
786.77	244.29
787.09	243.76
787.42	242.95
787.74	242.86
788.06	242.81
788.38	242.76
788.71	242.57
789.03	242.67
789.35	243.29
789.67	243.24
789.99	243.86
790.32	243.48
790.64	243.86
790.96	246.14
791.28	245.57
791.61	245.76
791.93	245.95
792.25	246.00
792.57	247.67
792.89	247.33
793.21	247.52
793.54	247.43
793.86	247.43
794.18	247.57
794.50	247.05
794.82	247.43
795.14	247.33
795.47	248.00
795.79	248.33
796.11	247.71
796.43	247.52
796.75	247.00
797.07	247.38
797.39	247.24
797.71	245.29
798.04	245.67
798.36	245.57
798.68	245.38
799.00	245.43
799.32	243.90
799.64	244.19
799.96	243.90
800.28	244.43
800.60	244.62
800.92	245.00
801.24	244.95
801.56	245.14
801.89	245.14
802.21	245.24
802.53	244.67
802.85	245.14
803.17	246.24
803.49	245.81
803.81	245.62
804.13	245.52
804.45	245.29
804.77	245.29
805.09	245.19
805.41	244.95
805.73	244.38
806.05	244.71
806.37	244.38
806.69	244.67
807.01	244.24
807.33	244.33
807.65	243.05
807.97	244.33
808.28	244.19
808.60	244.19
808.92	243.86
809.24	245.48
809.56	245.10
809.88	244.43
810.20	244.86
810.52	245.19
810.84	244.81
811.16	244.67
811.48	244.38
811.80	245.24
812.12	244.90
812.43	245.24
812.75	245.05
813.07	245.14
813.39	245.19
813.71	244.81
814.03	244.48
814.35	244.76
814.67	243.38
814.98	243.00
815.30	242.86
815.62	242.38
815.94	240.71
816.26	241.38
816.58	240.57
816.89	240.52
817.21	240.33
817.53	240.48
817.85	240.57
818.17	240.38
818.48	239.19
818.80	239.81
819.12	239.48
819.44	239.10
819.76	239.00
820.07	238.95
820.39	239.00
820.71	238.86
821.03	239.00
821.34	239.14
821.66	239.57
821.98	240.00
822.30	239.86
822.61	241.33
822.93	240.48
823.25	240.52
823.57	240.43
823.88	240.76
824.20	240.76
824.52	241.05
824.83	241.33
825.15	241.00
825.47	240.95
825.79	241.29
826.10	241.14
826.42	240.86
826.74	240.90
827.05	241.24
827.37	241.95
827.69	241.57
828.00	241.62
828.32	241.48
828.64	240.90
828.95	242.62
829.27	242.24
829.58	242.10
829.90	242.67
830.22	242.67
830.53	241.71
830.85	241.57
831.17	241.19
831.48	241.10
831.80	241.76
832.11	241.67
832.43	241.57
832.75	241.48
833.06	242.95
833.38	242.52
833.69	241.95
834.01	241.57
834.32	241.76
834.64	241.48
834.96	241.48
835.27	241.57
835.59	240.86
835.90	239.86
836.22	240.10
836.53	239.76
836.85	239.57
837.16	242.57
837.48	243.05
837.79	243.81
838.11	243.71
838.42	243.71
838.74	244.43
839.05	244.19
839.37	244.29
839.68	242.71
840.00	242.48
840.31	243.10
840.63	243.00
840.94	242.81
841.26	242.95
841.57	243.10
841.88	243.86
842.20	243.14
842.51	243.19
842.83	243.14
843.14	245.19
843.46	245.10
843.77	243.38
844.08	242.86
844.40	241.81
844.71	241.71
845.03	241.33
845.34	240.52
845.65	240.38
845.97	240.38
846.28	240.67
846.60	240.90
846.91	240.52
847.22	240.43
847.54	241.00
847.85	240.90
848.16	240.48
848.48	239.71
848.79	240.95
849.10	241.62
849.42	241.67
849.73	239.67
850.04	239.95
850.36	239.10
850.67	239.67
850.98	239.76
851.30	239.95
851.61	240.00
851.92	240.52
852.23	241.43
852.55	241.71
852.86	241.57
853.17	241.62
853.49	242.19
853.80	242.67
854.11	242.90
854.42	243.00
854.74	242.76
855.05	243.19
855.36	241.33
855.67	241.10
855.99	240.95
856.30	243.57
856.61	243.33
856.92	243.57
857.23	243.29
857.55	243.33
857.86	243.14
858.17	243.67
858.48	243.24
858.79	242.57
859.11	242.95
859.42	243.24
859.73	242.81
860.04	242.71
860.35	242.14
860.66	241.10
860.98	241.19
861.29	241.76
861.60	241.43
861.91	242.05
862.22	241.52
862.53	241.19
862.84	238.52
863.16	239.10
863.47	238.81
863.78	238.57
864.09	238.67
864.40	238.81
864.71	238.62
865.02	238.86
865.33	238.62
865.64	237.90
865.95	237.67
866.27	239.38
866.58	239.14
866.89	239.38
867.20	239.57
867.51	239.24
867.82	238.81
868.13	239.48
868.44	239.14
868.75	239.67
869.06	239.95
869.37	240.29
869.68	239.52
869.99	239.62
870.30	240.05
870.61	240.33
870.92	240.24
871.23	239.90
871.54	240.43
871.85	241.24
872.16	241.43
872.47	241.10
872.78	239.76
873.09	240.24
873.40	239.71
873.71	239.81
874.02	240.29
874.33	240.38
874.64	239.81
874.95	240.33
875.26	239.95
875.56	239.86
875.87	239.62
876.18	239.52
876.49	241.95
876.80	241.62
877.11	241.24
877.42	241.33
877.73	241.33
878.04	240.67
878.35	240.52
878.66	240.62
878.96	240.86
879.27	241.05
879.58	240.43
879.89	240.43
880.20	241.10
880.51	240.81
880.82	240.71
881.12	240.95
881.43	240.57
881.74	240.29
882.05	240.52
882.36	240.81
882.67	241.29
882.97	238.95
883.28	238.71
883.59	238.43
883.90	238.38
884.21	238.90
884.51	238.71
884.82	238.10
885.13	238.05
885.44	238.00
885.74	237.86
886.05	238.00
886.36	238.24
886.67	237.33
886.98	238.43
887.28	238.67
887.59	238.62
887.90	238.62
888.20	238.57
888.51	238.81
888.82	238.48
889.13	238.67
889.43	240.62
889.74	240.57
890.05	240.76
890.35	240.81
890.66	240.10
890.97	239.86
891.28	239.90
891.58	240.10
891.89	240.14
892.20	240.10
892.50	239.95
892.81	239.67
893.12	239.76
893.42	238.62
893.73	238.67
894.04	238.48
894.34	238.81
894.65	238.71
894.95	238.33
895.26	238.57
895.57	239.24
895.87	236.71
896.18	236.90
896.48	237.14
896.79	236.76
897.10	237.29
897.40	237.33
897.71	237.52
898.01	237.05
898.32	237.43
898.63	237.29
898.93	237.38
899.24	237.57
899.54	237.71
899.85	237.95
900.15	237.81
900.46	237.90
900.76	238.05
901.07	238.14
901.38	238.05
901.68	238.10
901.99	237.14
902.29	237.71
902.60	237.71
902.90	237.71
903.21	237.95
903.51	237.81
903.82	238.52
904.12	238.33
904.43	238.81
904.73	238.43
905.03	238.57
905.34	240.95
905.64	240.90
905.95	240.71
906.25	240.62
906.56	240.57
906.86	240.57
907.17	240.10
907.47	240.24
907.77	240.10
908.08	239.43
908.38	239.71
908.69	239.67
908.99	240.19
909.30	239.95
909.60	239.62
909.90	239.86
910.21	239.38
910.51	239.14
910.81	238.90
911.12	239.29
911.42	239.19
911.73	236.67
912.03	236.76
912.33	237.24
912.64	237.33
912.94	237.24
913.24	236.81
913.55	236.81
913.85	236.67
914.15	237.24
914.46	237.71
914.76	237.33
915.06	237.57
915.37	237.48
915.67	237.29
915.97	237.48
916.27	236.62
916.58	236.81
916.88	236.71
917.18	236.48
917.49	238.00
917.79	238.24
918.09	238.57
918.39	239.29
918.70	239.38
919.00	239.14
919.30	240.33
919.60	240.29
919.91	240.00
920.21	240.05
920.51	239.48
920.81	239.38
921.12	239.86
921.42	239.05
921.72	238.67
922.02	239.14
922.32	239.76
922.63	240.10
922.93	241.19
923.23	241.67
923.53	241.52
923.83	239.90
924.13	239.76
924.44	239.62
924.74	239.81
925.04	240.24
925.34	240.14
925.64	239.10
925.94	239.00
926.24	240.57
926.55	240.33
926.85	240.71
927.15	240.62
927.45	240.52
927.75	240.81
928.05	241.00
928.35	240.62
928.65	240.76
928.95	240.90
929.26	239.67
929.56	240.24
929.86	240.57
930.16	240.33
930.46	240.33
930.76	240.43
931.06	239.38
931.36	238.48
931.66	238.86
931.96	239.33
932.26	239.57
932.56	238.52
932.86	238.90
933.16	239.00
933.46	238.86
933.76	238.29
934.06	239.19
934.36	240.00
934.66	240.14
934.96	239.81
935.26	240.05
935.56	240.86
935.86	240.14
936.16	239.90
936.46	239.52
936.76	239.38
937.06	239.19
937.36	239.76
937.66	240.10
937.96	239.86
938.26	239.19
938.56	239.00
938.86	239.05
939.16	239.48
939.46	239.29
939.76	239.62
940.06	239.90
940.35	239.05
940.65	237.86
940.95	237.95
941.25	237.57
941.55	237.33
941.85	236.95
942.15	237.43
942.45	238.19
942.75	238.67
943.04	238.90
943.34	239.43
943.64	238.86
943.94	238.57
944.24	238.52
944.54	239.00
944.84	238.86
945.13	238.76
945.43	238.67
945.73	238.62
946.03	238.29
946.33	238.00
946.62	237.76
946.92	237.43
947.22	237.19
947.52	237.43
947.82	237.52
948.11	237.19
948.41	236.48
948.71	235.62
949.01	235.52
949.31	235.52
949.60	235.29
949.90	235.86
950.20	235.76
950.50	236.19
950.79	235.71
951.09	236.48
951.39	236.48
951.69	236.00
951.98	236.76
952.28	236.90
952.58	236.90
952.87	237.14
953.17	238.05
953.47	238.52
953.76	238.38
954.06	238.19
954.36	237.90
954.66	238.24
954.95	239.38
955.25	239.71
955.55	239.76
955.84	239.14
956.14	239.00
956.44	239.10
956.73	238.67
957.03	239.00
957.32	238.81
957.62	238.38
957.92	238.86
958.21	238.38
958.51	241.24
958.81	241.52
959.10	241.48
959.40	241.90
959.69	241.43
959.99	241.90
960.29	241.95
960.58	241.86
960.88	242.71
961.17	242.10
961.47	242.24
961.76	241.81
962.06	242.14
962.36	241.71
962.65	242.33
962.95	242.48
963.24	242.19
963.54	242.29
963.83	242.67
964.13	242.71
964.42	242.14
964.72	240.24
965.01	240.19
965.31	240.19
965.60	239.38
965.90	241.19
966.19	240.24
966.49	240.38
966.78	240.19
967.08	239.71
967.37	239.67
967.67	239.10
967.96	239.48
968.26	239.62
968.55	240.43
968.85	239.81
969.14	239.52
969.43	239.62
969.73	239.29
970.02	239.33
970.32	239.10
970.61	239.14
970.91	238.29
971.20	237.90
971.49	237.90
971.79	238.00
972.08	236.43
972.38	237.05
972.67	236.71
972.96	237.71
973.26	237.52
973.55	238.10
973.85	237.86
974.14	237.86
974.43	238.00
974.73	237.52
975.02	237.33
975.31	237.57
975.61	237.57
975.90	237.62
976.19	236.81
976.49	236.90
976.78	237.29
977.07	236.90
977.37	236.95
977.66	237.10
977.95	237.24
978.24	237.33
978.54	237.86
978.83	237.86
979.12	237.14
979.42	236.76
979.71	236.71
980.00	236.81
980.29	236.81
980.59	236.24
980.88	236.57
981.17	236.57
981.46	236.81
981.76	236.62
982.05	237.43
982.34	238.05
982.63	238.14
982.93	237.90
983.22	239.10
983.51	239.29
983.80	239.52
984.09	239.52
984.39	239.43
984.68	238.67
984.97	239.00
985.26	239.00
985.55	239.33
985.85	238.57
986.14	238.90
986.43	238.90
986.72	239.14
987.01	238.48
987.30	238.38
987.59	237.71
987.89	237.86
988.18	236.90
988.47	236.76
988.76	236.57
989.05	236.57
989.34	236.00
989.63	236.62
989.92	236.19
990.22	235.67
990.51	235.33
990.80	235.43
991.09	235.43
991.38	235.81
991.67	235.86
991.96	235.71
992.25	235.95
992.54	235.52
992.83	235.57
993.12	235.52
993.41	236.10
993.70	237.14
993.99	237.62
994.28	237.90
994.58	238.19
994.87	237.67
995.16	237.48
995.45	237.24
995.74	236.33
996.03	236.86
996.32	237.62
996.61	238.52
996.90	238.38
997.19	237.95
997.48	237.90
997.77	237.43
998.06	237.67
998.34	237.43
998.63	237.38
998.92	237.29
999.21	237.57
999.50	237.57
999.79	236.81
1000.08	236.71
1000.37	236.86
1000.66	236.52
1000.95	237.29
1001.24	237.62
1001.53	237.90
1001.82	238.29
1002.11	237.95
1002.40	238.05
1002.68	238.29
1002.97	240.19
1003.26	240.38
1003.55	239.95
1003.84	240.00
1004.13	240.86
1004.42	240.67
1004.71	241.05
1004.99	241.00
1005.28	241.29
1005.57	240.81
1005.86	240.52
1006.15	240.29
1006.44	239.86
1006.72	240.19
1007.01	239.62
1007.30	239.48
1007.59	239.38
1007.88	239.10
1008.17	238.90
1008.45	238.43
1008.74	237.67
1009.03	236.76
1009.32	236.71
1009.60	236.67
1009.89	236.86
1010.18	235.95
1010.47	236.10
1010.76	236.05
1011.04	236.24
1011.33	236.29
1011.62	237.10
1011.91	237.38
1012.19	237.43
1012.48	237.71
1012.77	237.86
1013.05	239.38
1013.34	239.62
1013.63	239.24
1013.92	239.62
1014.20	239.29
1014.49	239.24
1014.78	239.62
1015.06	238.62
1015.35	238.76
1015.64	239.19
1015.92	239.52
1016.21	239.48
1016.50	239.43
1016.78	239.76
1017.07	239.90
1017.36	239.81
1017.64	239.14
1017.93	239.57
1018.22	239.48
1018.50	239.52
1018.79	239.38
1019.08	238.33
1019.36	238.24
1019.65	238.14
1019.93	238.86
1020.22	239.52
1020.51	240.76
1020.79	240.24
1021.08	236.00
1021.36	239.00
1021.65	239.00
1021.94	242.00
1022.22	238.00
1022.51	231.00
1022.79	254.00
1023.08	241.00
1023.36	265.00
1023.65	234.00
>>>>>End Processed Spectral Data<<<<<
