SpectraSuite Data File
++++++++++++++++++++++++++++++++++++
Date: Wed Nov 07 18:31:53 EST 2012
User: group
Dark Spectrum Present: No
Reference Spectrum Present: No
Number of Sampled Component Spectra: 1
Spectrometers: USB2E7196
Integration Time (usec): 1000000 (USB2E7196)
Spectra Averaged: 1 (USB2E7196)
Boxcar Smoothing: 10 (USB2E7196)
Correct for Electrical Dark: No (USB2E7196)
Strobe/Lamp Enabled: No (USB2E7196)
Correct for Detector Non-linearity: No (USB2E7196)
Correct for Stray Light: No (USB2E7196)
Number of Pixels in Processed Spectrum: 2048
>>>>>Begin Processed Spectral Data<<<<<
339.09	0.00
339.48	219.00
339.86	220.00
340.24	225.00
340.63	223.00
341.01	266.00
341.39	231.00
341.78	235.00
342.16	243.00
342.54	236.00
342.93	223.71
343.31	234.81
343.69	235.29
344.07	235.81
344.46	236.19
344.84	236.90
345.22	235.00
345.60	235.29
345.99	235.29
346.37	234.71
346.75	234.33
347.13	234.57
347.52	234.33
347.90	235.19
348.28	235.00
348.66	235.71
349.05	234.57
349.43	234.71
349.81	235.10
350.19	235.05
350.57	234.86
350.96	234.90
351.34	235.10
351.72	235.29
352.10	235.29
352.48	235.24
352.87	235.10
353.25	235.33
353.63	234.67
354.01	234.52
354.39	234.67
354.77	234.86
355.15	235.33
355.54	235.00
355.92	234.29
356.30	234.10
356.68	235.29
357.06	235.52
357.44	235.33
357.82	235.24
358.20	235.62
358.58	235.86
358.97	235.90
359.35	236.00
359.73	236.81
360.11	237.00
360.49	237.29
360.87	237.43
361.25	237.90
361.63	239.33
362.01	239.57
362.39	239.57
362.77	240.29
363.15	240.24
363.53	240.57
363.91	240.76
364.29	241.33
364.67	239.05
365.05	239.05
365.43	239.62
365.81	240.05
366.19	241.05
366.57	242.24
366.95	242.38
367.33	242.24
367.71	242.10
368.09	242.67
368.47	242.81
368.85	242.71
369.23	243.24
369.61	242.48
369.99	243.48
370.37	243.81
370.75	244.81
371.13	244.43
371.51	244.38
371.89	244.38
372.27	244.67
372.65	245.38
373.03	245.33
373.41	245.19
373.78	244.95
374.16	244.05
374.54	243.29
374.92	243.38
375.30	243.38
375.68	243.00
376.06	243.29
376.44	242.95
376.82	243.24
377.19	243.00
377.57	242.81
377.95	242.00
378.33	241.95
378.71	240.48
379.09	241.00
379.47	241.43
379.84	241.71
380.22	241.24
380.60	240.76
380.98	240.76
381.36	240.76
381.73	240.62
382.11	240.90
382.49	240.95
382.87	240.71
383.25	241.00
383.62	243.95
384.00	243.33
384.38	243.62
384.76	244.10
385.13	245.24
385.51	245.14
385.89	245.10
386.27	245.29
386.64	245.62
387.02	245.24
387.40	244.76
387.78	244.33
388.15	244.67
388.53	244.95
388.91	245.00
389.29	244.90
389.66	245.33
390.04	244.90
390.42	245.10
390.79	245.19
391.17	245.10
391.55	242.14
391.92	242.10
392.30	242.05
392.68	241.10
393.05	240.86
393.43	241.14
393.81	240.95
394.18	240.81
394.56	240.67
394.94	241.19
395.31	241.10
395.69	242.19
396.06	242.33
396.44	242.00
396.82	241.81
397.19	242.95
397.57	242.67
397.95	243.19
398.32	242.29
398.70	242.48
399.07	242.81
399.45	242.57
399.82	242.57
400.20	242.52
400.58	243.10
400.95	242.14
401.33	242.62
401.70	244.48
402.08	244.33
402.45	244.52
402.83	245.05
403.20	245.10
403.58	245.05
403.95	245.19
404.33	245.81
404.71	245.90
405.08	247.43
405.46	247.81
405.83	248.19
406.21	249.19
406.58	249.19
406.96	249.43
407.33	250.10
407.70	250.86
408.08	253.24
408.45	253.81
408.83	254.71
409.20	255.29
409.58	254.76
409.95	256.10
410.33	256.95
410.70	257.24
411.08	258.86
411.45	259.76
411.82	260.67
412.20	262.52
412.57	265.38
412.95	264.62
413.32	266.38
413.69	267.76
414.07	269.52
414.44	272.19
414.82	274.57
415.19	277.00
415.56	279.24
415.94	280.24
416.31	283.57
416.68	286.43
417.06	289.71
417.43	293.24
417.81	296.86
418.18	300.86
418.55	304.86
418.93	309.19
419.30	313.33
419.67	318.19
420.04	322.33
420.42	326.57
420.79	334.33
421.16	339.81
421.54	347.14
421.91	353.24
422.28	359.29
422.66	365.67
423.03	374.24
423.40	381.52
423.77	389.00
424.15	396.14
424.52	404.10
424.89	412.76
425.26	420.29
425.64	427.62
426.01	436.10
426.38	444.29
426.75	454.24
427.13	463.43
427.50	473.10
427.87	483.19
428.24	493.67
428.61	501.76
428.99	513.52
429.36	523.76
429.73	534.67
430.10	546.29
430.47	558.38
430.85	569.14
431.22	582.19
431.59	597.24
431.96	609.90
432.33	624.38
432.70	638.95
433.08	655.05
433.45	670.90
433.82	686.29
434.19	703.57
434.56	718.95
434.93	734.57
435.30	750.81
435.68	767.67
436.05	783.29
436.42	799.33
436.79	814.19
437.16	831.33
437.53	848.76
437.90	864.76
438.27	881.67
438.64	898.14
439.01	913.71
439.38	925.71
439.75	938.76
440.13	953.62
440.50	966.62
440.87	978.38
441.24	989.52
441.61	1002.95
441.98	1011.43
442.35	1022.19
442.72	1033.33
443.09	1043.90
443.46	1050.10
443.83	1054.24
444.20	1057.52
444.57	1061.67
444.94	1062.71
445.31	1064.95
445.68	1070.33
446.05	1069.52
446.42	1066.10
446.79	1063.10
447.16	1060.10
447.53	1058.00
447.90	1050.19
448.27	1042.33
448.64	1032.24
449.01	1024.33
449.37	1010.76
449.74	998.62
450.11	987.38
450.48	971.86
450.85	955.29
451.22	941.43
451.59	928.90
451.96	916.48
452.33	900.71
452.70	885.95
453.07	867.67
453.43	847.33
453.80	831.19
454.17	815.90
454.54	800.33
454.91	784.33
455.28	768.24
455.65	753.38
456.02	744.10
456.38	731.90
456.75	717.81
457.12	705.38
457.49	694.19
457.86	679.19
458.23	670.33
458.59	659.90
458.96	648.62
459.33	638.71
459.70	628.57
460.07	621.00
460.43	611.48
460.80	604.43
461.17	596.57
461.54	588.95
461.91	581.67
462.27	574.10
462.64	567.90
463.01	560.86
463.38	555.00
463.74	543.52
464.11	536.71
464.48	531.38
464.85	526.24
465.21	522.57
465.58	518.43
465.95	511.67
466.32	507.10
466.68	503.05
467.05	498.67
467.42	494.81
467.78	490.14
468.15	486.19
468.52	482.62
468.88	478.10
469.25	473.76
469.62	470.95
469.98	467.43
470.35	464.00
470.72	461.52
471.08	457.29
471.45	454.48
471.82	452.76
472.18	449.38
472.55	446.95
472.92	443.10
473.28	440.19
473.65	437.86
474.02	435.19
474.38	433.24
474.75	431.90
475.11	429.38
475.48	427.19
475.85	425.52
476.21	423.76
476.58	423.24
476.94	422.24
477.31	420.95
477.67	419.90
478.04	418.57
478.41	417.38
478.77	419.62
479.14	418.90
479.50	418.43
479.87	418.86
480.23	418.43
480.60	418.52
480.96	418.81
481.33	420.52
481.69	420.86
482.06	421.52
482.42	422.05
482.79	423.38
483.15	424.10
483.52	425.24
483.88	425.62
484.25	426.67
484.61	427.62
484.98	428.43
485.34	430.76
485.71	433.19
486.07	434.95
486.44	433.57
486.80	435.10
487.17	436.57
487.53	438.38
487.90	440.14
488.26	442.62
488.62	444.81
488.99	444.81
489.35	446.62
489.72	447.95
490.08	449.33
490.44	450.95
490.81	453.24
491.17	455.24
491.54	457.95
491.90	460.29
492.26	462.71
492.63	465.29
492.99	467.33
493.36	469.19
493.72	472.43
494.08	475.67
494.45	479.14
494.81	482.43
495.17	485.38
495.54	489.19
495.90	491.90
496.26	495.43
496.63	500.19
496.99	503.90
497.35	508.10
497.72	512.24
498.08	515.86
498.44	520.76
498.80	525.43
499.17	529.62
499.53	533.57
499.89	538.48
500.26	543.24
500.62	548.05
500.98	553.71
501.34	557.90
501.71	563.33
502.07	567.52
502.43	571.90
502.79	576.71
503.16	581.24
503.52	586.48
503.88	590.90
504.24	595.86
504.60	601.33
504.97	606.71
505.33	611.67
505.69	618.29
506.05	622.33
506.41	627.57
506.78	632.48
507.14	637.95
507.50	643.00
507.86	648.19
508.22	653.24
508.59	657.62
508.95	662.67
509.31	668.57
509.67	674.57
510.03	679.19
510.39	684.05
510.75	688.52
511.12	692.95
511.48	698.62
511.84	703.81
512.20	709.14
512.56	713.57
512.92	718.71
513.28	723.57
513.64	728.67
514.00	732.95
514.37	737.52
514.73	742.29
515.09	747.67
515.45	751.86
515.81	755.62
516.17	759.95
516.53	764.90
516.89	767.19
517.25	770.52
517.61	776.52
517.97	780.76
518.33	785.62
518.69	789.90
519.05	793.57
519.41	797.05
519.77	801.71
520.13	804.38
520.49	807.62
520.85	810.14
521.21	814.90
521.57	818.00
521.93	820.76
522.29	823.76
522.65	824.76
523.01	827.29
523.37	829.43
523.73	832.14
524.09	833.52
524.45	836.71
524.81	839.10
525.17	840.24
525.53	842.00
525.89	842.95
526.25	844.81
526.61	845.86
526.97	847.05
527.33	847.38
527.68	851.86
528.04	852.81
528.40	853.90
528.76	854.24
529.12	855.71
529.48	857.62
529.84	857.57
530.20	859.62
530.56	861.95
530.91	863.90
531.27	865.10
531.63	866.62
531.99	867.57
532.35	868.81
532.71	869.81
533.07	870.86
533.42	875.05
533.78	876.10
534.14	877.43
534.50	877.67
534.86	879.14
535.21	878.81
535.57	880.57
535.93	881.33
536.29	883.43
536.65	884.52
537.00	886.05
537.36	888.81
537.72	890.24
538.08	892.57
538.44	894.48
538.79	896.43
539.15	898.52
539.51	900.29
539.87	902.05
540.22	904.24
540.58	906.33
540.94	905.90
541.29	908.05
541.65	909.29
542.01	912.05
542.37	913.71
542.72	914.48
543.08	915.86
543.44	917.57
543.79	916.43
544.15	917.00
544.51	916.95
544.87	916.43
545.22	916.14
545.58	913.90
545.94	912.00
546.29	910.14
546.65	908.24
547.01	906.05
547.36	904.10
547.72	901.48
548.07	898.95
548.43	895.81
548.79	892.43
549.14	889.52
549.50	887.33
549.86	883.19
550.21	880.43
550.57	876.81
550.92	873.33
551.28	872.62
551.64	869.76
551.99	867.10
552.35	864.10
552.70	861.38
553.06	859.71
553.41	857.43
553.77	856.24
554.13	854.24
554.48	852.14
554.84	850.43
555.19	848.62
555.55	848.33
555.90	847.05
556.26	845.14
556.61	843.67
556.97	840.67
557.32	838.71
557.68	837.48
558.03	835.81
558.39	833.86
558.74	830.67
559.10	828.19
559.45	826.62
559.81	825.48
560.16	823.24
560.52	820.52
560.87	819.38
561.23	817.62
561.58	818.00
561.94	816.62
562.29	814.14
562.64	812.19
563.00	809.29
563.35	807.05
563.71	805.62
564.06	804.05
564.42	802.71
564.77	801.95
565.12	800.43
565.48	801.00
565.83	799.86
566.19	798.10
566.54	797.10
566.89	795.19
567.25	794.43
567.60	795.33
567.96	796.29
568.31	796.57
568.66	795.33
569.02	791.81
569.37	790.67
569.72	790.05
570.08	788.33
570.43	786.10
570.78	784.71
571.14	783.14
571.49	781.62
571.84	779.86
572.20	778.19
572.55	776.24
572.90	773.29
573.26	772.24
573.61	770.71
573.96	769.95
574.31	769.14
574.67	767.05
575.02	764.57
575.37	760.52
575.72	757.67
576.08	755.67
576.43	754.76
576.78	752.67
577.13	751.10
577.49	750.29
577.84	750.05
578.19	748.81
578.54	748.43
578.90	746.86
579.25	746.86
579.60	745.24
579.95	743.38
580.30	742.90
580.66	741.43
581.01	740.67
581.36	738.67
581.71	736.67
582.06	736.33
582.42	734.43
582.77	733.24
583.12	731.90
583.47	730.95
583.82	730.10
584.17	729.86
584.53	729.90
584.88	728.33
585.23	727.00
585.58	725.38
585.93	722.00
586.28	720.76
586.63	718.10
586.98	716.67
587.34	715.19
587.69	711.48
588.04	708.90
588.39	706.95
588.74	704.48
589.09	703.43
589.44	699.52
589.79	696.71
590.14	694.24
590.49	690.86
590.84	686.81
591.19	682.33
591.54	678.71
591.89	674.10
592.25	673.48
592.60	669.81
592.95	666.90
593.30	665.52
593.65	662.43
594.00	658.95
594.35	661.95
594.70	658.43
595.05	656.10
595.40	653.10
595.75	649.14
596.10	646.48
596.45	642.62
596.80	639.90
597.15	636.52
597.50	633.14
597.85	630.71
598.19	627.95
598.54	625.48
598.89	622.24
599.24	619.57
599.59	614.48
599.94	611.71
600.29	608.81
600.64	605.24
600.99	603.71
601.34	601.71
601.69	592.81
602.04	590.71
602.39	587.71
602.74	586.33
603.08	584.43
603.43	583.29
603.78	581.29
604.13	579.38
604.48	578.19
604.83	577.43
605.18	576.67
605.53	577.48
605.87	579.19
606.22	582.90
606.57	587.14
606.92	591.81
607.27	597.33
607.62	603.95
607.96	609.48
608.31	612.62
608.66	616.62
609.01	620.19
609.36	624.14
609.70	627.62
610.05	629.67
610.40	632.81
610.75	634.10
611.10	636.05
611.44	637.48
611.79	638.29
612.14	638.33
612.49	637.00
612.83	634.62
613.18	630.90
613.53	624.90
613.88	618.05
614.22	610.29
614.57	601.76
614.92	592.52
615.27	584.76
615.61	577.95
615.96	570.95
616.31	564.43
616.65	557.86
617.00	551.48
617.35	545.76
617.70	539.71
618.04	534.76
618.39	529.52
618.74	525.38
619.08	521.29
619.43	517.95
619.78	514.67
620.12	511.76
620.47	508.90
620.82	506.29
621.16	503.33
621.51	502.05
621.85	499.05
622.20	496.95
622.55	494.24
622.89	491.76
623.24	489.67
623.59	487.38
623.93	485.29
624.28	483.90
624.62	484.43
624.97	484.05
625.32	481.86
625.66	479.90
626.01	477.67
626.35	475.86
626.70	473.62
627.04	472.52
627.39	470.38
627.73	469.38
628.08	467.67
628.43	465.90
628.77	463.19
629.12	461.48
629.46	459.52
629.81	457.62
630.15	455.57
630.50	453.14
630.84	451.14
631.19	448.86
631.53	446.14
631.88	441.33
632.22	437.19
632.57	435.33
632.91	433.10
633.26	430.76
633.60	428.10
633.95	425.19
634.29	421.95
634.64	419.62
634.98	415.95
635.32	414.14
635.67	412.52
636.01	410.29
636.36	408.76
636.70	407.29
637.05	405.43
637.39	403.62
637.73	402.67
638.08	400.86
638.42	399.43
638.77	398.05
639.11	396.14
639.45	394.81
639.80	392.76
640.14	391.29
640.49	389.48
640.83	387.67
641.17	387.05
641.52	385.90
641.86	384.86
642.20	385.19
642.55	383.19
642.89	381.81
643.23	381.10
643.58	380.67
643.92	378.81
644.26	377.76
644.61	377.29
644.95	376.00
645.29	375.14
645.64	374.71
645.98	373.57
646.32	373.95
646.66	373.05
647.01	372.43
647.35	372.10
647.69	371.67
648.04	371.48
648.38	370.81
648.72	370.00
649.06	368.57
649.41	366.29
649.75	365.67
650.09	364.95
650.43	363.86
650.78	361.81
651.12	360.95
651.46	359.90
651.80	358.52
652.14	357.29
652.49	357.05
652.83	355.38
653.17	354.67
653.51	352.38
653.85	350.86
654.20	349.71
654.54	347.76
654.88	346.05
655.22	344.05
655.56	342.67
655.90	341.52
656.25	340.71
656.59	340.48
656.93	339.38
657.27	339.33
657.61	337.95
657.95	337.57
658.29	336.81
658.64	336.76
658.98	335.86
659.32	334.95
659.66	334.05
660.00	333.76
660.34	332.67
660.68	332.38
661.02	332.29
661.36	331.33
661.70	331.00
662.05	330.81
662.39	331.86
662.73	331.62
663.07	332.52
663.41	332.00
663.75	330.62
664.09	330.24
664.43	328.48
664.77	328.10
665.11	327.33
665.45	326.57
665.79	325.81
666.13	324.95
666.47	324.19
666.81	323.00
667.15	321.19
667.49	321.00
667.83	321.10
668.17	320.05
668.51	319.43
668.85	318.76
669.19	318.62
669.53	316.86
669.87	315.67
670.21	313.90
670.55	313.10
670.89	313.57
671.23	313.38
671.57	313.14
671.91	312.38
672.25	311.71
672.58	312.33
672.92	310.95
673.26	310.76
673.60	310.67
673.94	310.10
674.28	310.33
674.62	309.81
674.96	309.05
675.30	309.10
675.64	308.43
675.97	307.76
676.31	306.86
676.65	306.38
676.99	306.86
677.33	305.57
677.67	305.81
678.01	304.57
678.34	303.76
678.68	303.43
679.02	302.86
679.36	302.14
679.70	300.90
680.04	300.62
680.37	300.10
680.71	299.00
681.05	298.71
681.39	298.29
681.73	297.81
682.06	297.14
682.40	296.62
682.74	296.90
683.08	297.62
683.42	297.00
683.75	297.38
684.09	296.48
684.43	297.19
684.77	296.00
685.10	296.00
685.44	295.62
685.78	294.90
686.12	294.67
686.45	294.43
686.79	293.57
687.13	293.81
687.46	293.24
687.80	293.67
688.14	293.00
688.48	292.57
688.81	292.14
689.15	292.29
689.49	291.48
689.82	291.29
690.16	289.86
690.50	289.57
690.83	288.62
691.17	287.67
691.51	286.95
691.84	287.05
692.18	286.00
692.52	285.38
692.85	285.48
693.19	286.43
693.52	285.90
693.86	285.48
694.20	285.19
694.53	284.90
694.87	284.19
695.21	284.10
695.54	283.67
695.88	282.90
696.21	281.52
696.55	281.43
696.88	280.33
697.22	279.86
697.56	279.86
697.89	279.29
698.23	279.38
698.56	278.67
698.90	278.62
699.23	278.48
699.57	278.48
699.90	277.48
700.24	276.19
700.58	276.81
700.91	277.14
701.25	278.43
701.58	279.05
701.92	279.95
702.25	280.24
702.59	280.48
702.92	281.00
703.26	281.90
703.59	282.43
703.93	285.00
704.26	285.76
704.60	286.29
704.93	286.81
705.26	287.05
705.60	288.05
705.93	287.76
706.27	288.67
706.60	289.29
706.94	290.48
707.27	290.24
707.61	289.95
707.94	290.00
708.27	288.29
708.61	287.52
708.94	286.81
709.28	286.48
709.61	285.48
709.94	284.90
710.28	284.19
710.61	283.43
710.95	280.76
711.28	281.62
711.61	280.33
711.95	280.24
712.28	279.43
712.61	278.29
712.95	278.95
713.28	279.33
713.61	278.05
713.95	276.43
714.28	275.81
714.61	274.86
714.95	273.86
715.28	272.90
715.61	272.00
715.95	271.67
716.28	270.81
716.61	270.81
716.95	270.24
717.28	269.52
717.61	268.81
717.94	268.24
718.28	265.86
718.61	265.48
718.94	264.52
719.27	263.90
719.61	263.71
719.94	262.43
720.27	261.00
720.60	260.76
720.94	260.81
721.27	260.86
721.60	260.86
721.93	260.71
722.27	261.52
722.60	261.62
722.93	260.76
723.26	260.81
723.59	260.24
723.93	260.38
724.26	260.71
724.59	260.48
724.92	260.43
725.25	261.24
725.59	261.19
725.92	261.29
726.25	261.24
726.58	261.10
726.91	261.19
727.24	261.05
727.57	261.00
727.91	260.33
728.24	260.14
728.57	259.90
728.90	259.95
729.23	258.81
729.56	259.90
729.89	259.90
730.22	259.38
730.55	259.38
730.89	259.19
731.22	258.71
731.55	258.62
731.88	258.90
732.21	258.05
732.54	257.57
732.87	257.52
733.20	257.62
733.53	257.52
733.86	257.33
734.19	257.14
734.52	257.33
734.85	258.90
735.18	258.76
735.51	259.81
735.84	259.62
736.17	260.33
736.50	258.76
736.83	261.43
737.16	261.62
737.49	261.86
737.82	261.38
738.15	261.57
738.48	261.57
738.81	261.10
739.14	260.81
739.47	260.76
739.80	260.33
740.13	260.52
740.46	259.90
740.79	259.38
741.12	258.81
741.45	258.24
741.78	257.05
742.11	257.48
742.44	256.14
742.77	256.52
743.10	255.76
743.43	255.33
743.75	252.52
744.08	255.24
744.41	255.10
744.74	255.00
745.07	254.19
745.40	254.90
745.73	255.57
746.06	255.76
746.39	255.95
746.71	255.86
747.04	255.19
747.37	255.10
747.70	255.33
748.03	255.57
748.36	256.00
748.68	255.62
749.01	254.81
749.34	254.71
749.67	254.57
750.00	255.00
750.33	257.33
750.65	257.52
750.98	254.90
751.31	254.62
751.64	254.76
751.97	256.43
752.29	255.48
752.62	254.62
752.95	254.48
753.28	253.95
753.60	253.71
753.93	254.24
754.26	254.43
754.59	253.76
754.91	253.38
755.24	252.90
755.57	252.95
755.90	252.76
756.22	252.43
756.55	251.90
756.88	251.29
757.20	249.14
757.53	248.29
757.86	247.81
758.19	248.14
758.51	248.00
758.84	246.38
759.17	246.05
759.49	245.95
759.82	246.95
760.15	247.33
760.47	247.19
760.80	246.67
761.13	246.90
761.45	246.76
761.78	246.86
762.11	246.81
762.43	246.62
762.76	246.86
763.08	247.29
763.41	247.67
763.74	247.67
764.06	247.67
764.39	247.81
764.71	247.95
765.04	247.33
765.37	247.14
765.69	247.14
766.02	247.48
766.34	247.05
766.67	245.95
767.00	245.95
767.32	247.38
767.65	248.57
767.97	248.71
768.30	249.14
768.62	248.95
768.95	248.71
769.27	248.52
769.60	248.67
769.92	248.14
770.25	247.33
770.57	247.29
770.90	247.48
771.22	247.33
771.55	247.33
771.87	247.48
772.20	247.38
772.52	249.81
772.85	253.00
773.17	253.52
773.50	253.33
773.82	252.95
774.15	251.52
774.47	250.05
774.80	249.71
775.12	249.29
775.45	249.29
775.77	249.57
776.09	249.76
776.42	249.67
776.74	250.52
777.07	250.86
777.39	250.71
777.72	250.43
778.04	250.71
778.36	250.24
778.69	250.14
779.01	250.38
779.33	248.00
779.66	244.81
779.98	244.48
780.31	244.90
780.63	246.10
780.95	246.62
781.28	246.43
781.60	245.95
781.92	246.05
782.25	246.33
782.57	246.05
782.89	246.05
783.22	245.81
783.54	245.33
783.86	245.14
784.19	245.00
784.51	245.67
784.83	245.24
785.16	245.52
785.48	245.48
785.80	245.19
786.12	245.29
786.45	245.05
786.77	245.29
787.09	245.00
787.42	244.05
787.74	244.24
788.06	244.33
788.38	244.57
788.71	244.00
789.03	244.00
789.35	244.24
789.67	243.67
789.99	244.00
790.32	243.38
790.64	243.90
790.96	245.95
791.28	245.33
791.61	245.00
791.93	244.86
792.25	244.81
792.57	246.90
792.89	246.76
793.21	246.95
793.54	246.38
793.86	245.81
794.18	246.05
794.50	245.33
794.82	245.57
795.14	245.95
795.47	246.90
795.79	246.71
796.11	246.29
796.43	246.43
796.75	246.14
797.07	246.52
797.39	246.19
797.71	244.24
798.04	244.24
798.36	244.76
798.68	244.52
799.00	244.81
799.32	243.24
799.64	243.38
799.96	243.33
800.28	244.00
800.60	244.24
800.92	244.19
801.24	244.43
801.56	244.57
801.89	244.00
802.21	244.19
802.53	243.86
802.85	244.67
803.17	245.81
803.49	245.24
803.81	244.76
804.13	244.57
804.45	244.62
804.77	244.62
805.09	244.43
805.41	244.29
805.73	243.86
806.05	243.33
806.37	243.29
806.69	243.43
807.01	243.38
807.33	243.57
807.65	242.86
807.97	244.10
808.28	243.76
808.60	243.95
808.92	243.62
809.24	245.43
809.56	244.71
809.88	243.76
810.20	244.05
810.52	244.95
810.84	244.76
811.16	244.29
811.48	244.10
811.80	244.95
812.12	245.05
812.43	245.29
812.75	245.48
813.07	245.19
813.39	244.86
813.71	244.43
814.03	243.90
814.35	244.00
814.67	242.57
814.98	242.62
815.30	242.52
815.62	241.95
815.94	239.81
816.26	241.00
816.58	240.24
816.89	240.48
817.21	239.81
817.53	239.90
817.85	240.24
818.17	240.19
818.48	239.19
818.80	239.86
819.12	239.52
819.44	239.24
819.76	238.71
820.07	238.76
820.39	238.81
820.71	239.38
821.03	239.52
821.34	239.38
821.66	239.62
821.98	239.76
822.30	239.71
822.61	241.62
822.93	240.29
823.25	240.52
823.57	240.29
823.88	240.86
824.20	240.67
824.52	240.90
824.83	240.86
825.15	240.76
825.47	240.43
825.79	240.52
826.10	240.33
826.42	240.57
826.74	240.76
827.05	240.76
827.37	240.57
827.69	240.33
828.00	240.48
828.32	240.52
828.64	240.33
828.95	241.67
829.27	240.86
829.58	240.90
829.90	241.57
830.22	241.76
830.53	240.95
830.85	240.90
831.17	240.33
831.48	240.43
831.80	240.52
832.11	240.24
832.43	240.57
832.75	240.67
833.06	242.00
833.38	241.57
833.69	241.52
834.01	241.67
834.32	241.71
834.64	241.81
834.96	241.62
835.27	241.62
835.59	240.33
835.90	240.00
836.22	240.00
836.53	239.76
836.85	239.48
837.16	242.14
837.48	242.33
837.79	243.33
838.11	243.62
838.42	243.76
838.74	244.38
839.05	243.76
839.37	243.81
839.68	242.24
840.00	242.05
840.31	242.19
840.63	241.71
840.94	241.52
841.26	241.14
841.57	241.05
841.88	241.10
842.20	241.29
842.51	240.86
842.83	240.95
843.14	242.95
843.46	243.05
843.77	241.57
844.08	241.29
844.40	240.24
844.71	239.95
845.03	239.57
845.34	239.14
845.65	239.10
845.97	239.00
846.28	239.19
846.60	239.57
846.91	239.19
847.22	239.24
847.54	239.90
847.85	240.05
848.16	240.05
848.48	239.81
848.79	240.86
849.10	240.95
849.42	241.05
849.73	238.86
850.04	238.67
850.36	237.86
850.67	238.38
850.98	238.24
851.30	238.14
851.61	238.29
851.92	238.24
852.23	238.95
852.55	239.19
852.86	239.38
853.17	239.38
853.49	240.19
853.80	240.76
854.11	240.95
854.42	241.24
854.74	240.86
855.05	240.62
855.36	239.29
855.67	239.57
855.99	239.71
856.30	242.67
856.61	242.86
856.92	242.86
857.23	242.71
857.55	242.86
857.86	242.95
858.17	243.57
858.48	243.52
858.79	242.90
859.11	243.10
859.42	242.90
859.73	242.48
860.04	242.00
860.35	241.43
860.66	240.48
860.98	240.48
861.29	240.76
861.60	240.62
861.91	241.10
862.22	240.52
862.53	239.90
862.84	236.86
863.16	237.14
863.47	236.95
863.78	236.76
864.09	236.90
864.40	237.14
864.71	236.71
865.02	236.90
865.33	237.14
865.64	236.57
865.95	236.76
866.27	238.43
866.58	238.24
866.89	238.52
867.20	238.33
867.51	237.95
867.82	237.71
868.13	238.57
868.44	238.52
868.75	239.24
869.06	239.67
869.37	240.05
869.68	239.38
869.99	239.90
870.30	240.05
870.61	240.29
870.92	239.95
871.23	239.71
871.54	240.10
871.85	240.19
872.16	240.81
872.47	240.05
872.78	238.95
873.09	239.33
873.40	239.00
873.71	239.48
874.02	239.57
874.33	239.57
874.64	239.05
874.95	239.24
875.26	238.67
875.56	238.52
875.87	238.10
876.18	237.86
876.49	240.10
876.80	240.00
877.11	239.95
877.42	239.81
877.73	240.10
878.04	239.43
878.35	240.05
878.66	239.95
878.96	240.29
879.27	240.05
879.58	239.76
879.89	240.05
880.20	240.76
880.51	240.86
880.82	241.10
881.12	241.52
881.43	241.00
881.74	240.86
882.05	241.00
882.36	241.14
882.67	241.57
882.97	239.19
883.28	239.38
883.59	239.19
883.90	239.86
884.21	240.29
884.51	240.43
884.82	240.14
885.13	239.86
885.44	240.29
885.74	240.24
886.05	240.29
886.36	240.24
886.67	239.24
886.98	240.29
887.28	240.29
887.59	240.10
887.90	240.38
888.20	240.33
888.51	240.62
888.82	240.62
889.13	241.29
889.43	243.24
889.74	242.81
890.05	242.52
890.35	241.81
890.66	241.33
890.97	241.05
891.28	240.24
891.58	240.33
891.89	240.19
892.20	240.14
892.50	239.71
892.81	239.62
893.12	240.05
893.42	238.95
893.73	239.10
894.04	239.05
894.34	239.05
894.65	239.14
894.95	238.81
895.26	238.95
895.57	239.90
895.87	237.57
896.18	238.24
896.48	238.67
896.79	239.24
897.10	239.86
897.40	240.10
897.71	240.62
898.01	240.62
898.32	240.71
898.63	240.52
898.93	241.05
899.24	240.67
899.54	240.29
899.85	240.38
900.15	240.48
900.46	240.67
900.76	240.86
901.07	240.57
901.38	240.62
901.68	240.62
901.99	239.10
902.29	239.24
902.60	238.71
902.90	238.14
903.21	237.57
903.51	237.29
903.82	237.62
904.12	237.38
904.43	237.48
904.73	237.48
905.03	237.67
905.34	239.43
905.64	239.62
905.95	239.52
906.25	239.10
906.56	238.67
906.86	238.57
907.17	238.48
907.47	238.76
907.77	238.33
908.08	237.76
908.38	238.10
908.69	238.00
908.99	238.33
909.30	238.95
909.60	239.29
909.90	238.90
910.21	238.19
910.51	237.95
910.81	237.71
911.12	237.81
911.42	238.00
911.73	235.43
912.03	235.67
912.33	236.33
912.64	236.57
912.94	236.67
913.24	236.05
913.55	235.90
913.85	235.71
914.15	236.38
914.46	236.81
914.76	236.43
915.06	236.38
915.37	236.24
915.67	235.90
915.97	235.86
916.27	235.43
916.58	235.81
916.88	236.00
917.18	235.90
917.49	237.90
917.79	237.52
918.09	238.43
918.39	239.14
918.70	238.81
919.00	238.81
919.30	240.00
919.60	240.14
919.91	239.86
920.21	240.14
920.51	239.43
920.81	239.48
921.12	239.90
921.42	240.24
921.72	240.14
922.02	240.38
922.32	240.57
922.63	241.00
922.93	242.24
923.23	242.05
923.53	242.05
923.83	240.10
924.13	240.76
924.44	240.71
924.74	241.29
925.04	242.00
925.34	242.00
925.64	240.76
925.94	240.81
926.24	242.43
926.55	242.00
926.85	242.38
927.15	242.43
927.45	242.38
927.75	242.52
928.05	243.00
928.35	242.81
928.65	243.43
928.95	243.71
929.26	242.67
929.56	243.24
929.86	243.52
930.16	243.14
930.46	242.90
930.76	243.10
931.06	241.81
931.36	241.19
931.66	241.43
931.96	241.76
932.26	242.14
932.56	240.76
932.86	241.38
933.16	241.71
933.46	241.38
933.76	241.14
934.06	241.43
934.36	242.14
934.66	242.19
934.96	241.62
935.26	241.62
935.56	242.14
935.86	241.81
936.16	241.43
936.46	241.52
936.76	241.10
937.06	240.81
937.36	240.90
937.66	241.00
937.96	240.67
938.26	240.29
938.56	239.95
938.86	240.29
939.16	240.81
939.46	241.00
939.76	241.43
940.06	241.05
940.35	240.33
940.65	239.00
940.95	238.90
941.25	238.48
941.55	238.24
941.85	237.76
942.15	238.00
942.45	238.95
942.75	238.71
943.04	239.10
943.34	239.29
943.64	238.90
943.94	238.19
944.24	238.29
944.54	238.14
944.84	238.00
945.13	237.57
945.43	236.67
945.73	236.52
946.03	236.24
946.33	236.00
946.62	235.76
946.92	235.76
947.22	236.43
947.52	236.57
947.82	237.10
948.11	236.90
948.41	236.62
948.71	235.57
949.01	235.76
949.31	235.62
949.60	235.43
949.90	236.00
950.20	236.33
950.50	236.43
950.79	236.52
951.09	237.29
951.39	237.24
951.69	237.24
951.98	237.52
952.28	237.52
952.58	237.62
952.87	237.81
953.17	238.19
953.47	237.62
953.76	237.52
954.06	236.81
954.36	236.52
954.66	236.19
954.95	237.10
955.25	237.29
955.55	237.52
955.84	237.33
956.14	237.62
956.44	237.48
956.73	237.33
957.03	237.43
957.32	237.19
957.62	236.95
957.92	237.48
958.21	237.24
958.51	240.14
958.81	240.76
959.10	241.10
959.40	241.48
959.69	241.29
959.99	241.67
960.29	241.81
960.58	241.76
960.88	243.10
961.17	242.67
961.47	242.90
961.76	242.62
962.06	242.86
962.36	242.48
962.65	243.00
962.95	242.86
963.24	242.38
963.54	242.52
963.83	243.05
964.13	243.10
964.42	242.76
964.72	240.52
965.01	240.48
965.31	240.24
965.60	239.52
965.90	241.24
966.19	240.57
966.49	240.52
966.78	240.19
967.08	239.76
967.37	239.71
967.67	239.10
967.96	239.38
968.26	239.48
968.55	239.90
968.85	239.38
969.14	239.57
969.43	240.24
969.73	239.71
970.02	239.43
970.32	239.19
970.61	238.90
970.91	238.33
971.20	238.10
971.49	238.14
971.79	238.48
972.08	236.76
972.38	237.29
972.67	237.33
972.96	238.00
973.26	237.38
973.55	238.19
973.85	238.48
974.14	238.29
974.43	238.52
974.73	237.71
975.02	237.86
975.31	237.76
975.61	237.43
975.90	237.43
976.19	237.10
976.49	237.10
976.78	237.52
977.07	237.67
977.37	237.57
977.66	237.95
977.95	237.71
978.24	238.10
978.54	238.52
978.83	238.38
979.12	238.14
979.42	238.52
979.71	238.05
980.00	237.90
980.29	237.95
980.59	237.00
980.88	237.67
981.17	237.43
981.46	237.57
981.76	237.57
982.05	238.52
982.34	238.95
982.63	239.05
982.93	238.57
983.22	238.95
983.51	239.14
983.80	239.14
984.09	239.38
984.39	238.86
984.68	238.38
984.97	238.57
985.26	238.48
985.55	238.33
985.85	237.81
986.14	238.10
986.43	238.52
986.72	238.57
987.01	237.86
987.30	238.14
987.59	237.71
987.89	237.71
988.18	236.95
988.47	236.43
988.76	236.00
989.05	236.05
989.34	235.67
989.63	236.19
989.92	235.71
990.22	235.38
990.51	235.76
990.80	235.52
991.09	235.48
991.38	235.81
991.67	235.81
991.96	235.57
992.25	235.67
992.54	235.10
992.83	235.57
993.12	235.71
993.41	235.90
993.70	237.29
993.99	237.90
994.28	238.19
994.58	238.95
994.87	238.81
995.16	238.95
995.45	238.76
995.74	238.00
996.03	238.43
996.32	238.62
996.61	238.76
996.90	238.81
997.19	238.81
997.48	238.71
997.77	238.33
998.06	238.76
998.34	238.62
998.63	238.76
998.92	238.86
999.21	239.24
999.50	239.10
999.79	237.90
1000.08	237.57
1000.37	237.43
1000.66	237.00
1000.95	238.29
1001.24	238.29
1001.53	238.57
1001.82	238.33
1002.11	237.86
1002.40	238.57
1002.68	239.29
1002.97	241.24
1003.26	240.81
1003.55	240.57
1003.84	240.76
1004.13	241.81
1004.42	241.71
1004.71	241.71
1004.99	241.10
1005.28	241.43
1005.57	241.57
1005.86	241.24
1006.15	241.24
1006.44	240.90
1006.72	241.24
1007.01	240.29
1007.30	240.48
1007.59	240.19
1007.88	240.43
1008.17	240.24
1008.45	239.57
1008.74	238.29
1009.03	237.05
1009.32	237.24
1009.60	237.05
1009.89	236.81
1010.18	235.14
1010.47	234.95
1010.76	234.52
1011.04	234.62
1011.33	234.19
1011.62	234.67
1011.91	235.10
1012.19	235.05
1012.48	235.00
1012.77	235.05
1013.05	236.29
1013.34	235.86
1013.63	235.71
1013.92	235.90
1014.20	236.05
1014.49	236.14
1014.78	236.76
1015.06	236.00
1015.35	235.86
1015.64	236.24
1015.92	236.86
1016.21	237.43
1016.50	237.38
1016.78	237.95
1017.07	238.19
1017.36	238.38
1017.64	237.43
1017.93	237.71
1018.22	237.43
1018.50	237.38
1018.79	236.95
1019.08	235.52
1019.36	236.05
1019.65	236.14
1019.93	236.62
1020.22	237.24
1020.51	238.67
1020.79	237.90
1021.08	231.00
1021.36	231.00
1021.65	233.00
1021.94	233.00
1022.22	242.00
1022.51	235.00
1022.79	246.00
1023.08	246.00
1023.36	272.00
1023.65	224.00
>>>>>End Processed Spectral Data<<<<<
