SpectraSuite Data File
++++++++++++++++++++++++++++++++++++
Date: Wed Nov 07 18:31:44 EST 2012
User: group
Dark Spectrum Present: No
Reference Spectrum Present: No
Number of Sampled Component Spectra: 1
Spectrometers: USB2E7196
Integration Time (usec): 1000000 (USB2E7196)
Spectra Averaged: 1 (USB2E7196)
Boxcar Smoothing: 10 (USB2E7196)
Correct for Electrical Dark: No (USB2E7196)
Strobe/Lamp Enabled: No (USB2E7196)
Correct for Detector Non-linearity: No (USB2E7196)
Correct for Stray Light: No (USB2E7196)
Number of Pixels in Processed Spectrum: 2048
>>>>>Begin Processed Spectral Data<<<<<
339.09	0.00
339.48	225.00
339.86	225.00
340.24	225.00
340.63	219.00
341.01	271.00
341.39	229.00
341.78	236.00
342.16	232.00
342.54	227.00
342.93	223.71
343.31	234.71
343.69	235.14
344.07	235.33
344.46	235.90
344.84	236.71
345.22	234.81
345.60	235.10
345.99	235.24
346.37	235.67
346.75	235.86
347.13	235.90
347.52	235.57
347.90	236.33
348.28	236.38
348.66	236.19
349.05	235.38
349.43	235.43
349.81	235.43
350.19	235.33
350.57	235.19
350.96	235.24
351.34	235.48
351.72	235.33
352.10	235.48
352.48	235.00
352.87	234.81
353.25	234.76
353.63	234.52
354.01	234.29
354.39	234.33
354.77	234.48
355.15	235.19
355.54	235.14
355.92	234.57
356.30	234.62
356.68	236.71
357.06	237.05
357.44	236.86
357.82	236.95
358.20	237.43
358.58	237.57
358.97	237.81
359.35	238.48
359.73	239.38
360.11	239.57
360.49	239.90
360.87	240.24
361.25	240.81
361.63	242.10
362.01	242.33
362.39	242.00
362.77	242.19
363.15	242.00
363.53	242.19
363.91	242.33
364.29	242.19
364.67	240.05
365.05	240.19
365.43	240.57
365.81	241.00
366.19	242.00
366.57	243.62
366.95	243.76
367.33	243.24
367.71	242.95
368.09	243.43
368.47	243.90
368.85	244.19
369.23	244.90
369.61	244.00
369.99	245.05
370.37	245.67
370.75	247.05
371.13	246.57
371.51	246.33
371.89	246.62
372.27	247.00
372.65	247.14
373.03	247.48
373.41	247.57
373.78	247.38
374.16	246.67
374.54	245.62
374.92	245.33
375.30	245.48
375.68	245.10
376.06	245.43
376.44	244.90
376.82	244.90
377.19	244.29
377.57	244.29
377.95	243.29
378.33	242.71
378.71	241.43
379.09	241.76
379.47	242.05
379.84	241.67
380.22	241.43
380.60	241.00
380.98	240.67
381.36	240.48
381.73	240.14
382.11	240.38
382.49	240.48
382.87	240.10
383.25	239.90
383.62	242.76
384.00	242.05
384.38	242.29
384.76	242.57
385.13	243.71
385.51	243.43
385.89	243.05
386.27	243.38
386.64	243.52
387.02	243.67
387.40	243.48
387.78	243.81
388.15	244.00
388.53	244.05
388.91	244.38
389.29	244.10
389.66	244.62
390.04	244.05
390.42	244.38
390.79	244.86
391.17	244.86
391.55	242.05
391.92	241.95
392.30	242.14
392.68	241.52
393.05	241.10
393.43	241.29
393.81	241.62
394.18	241.10
394.56	241.00
394.94	241.14
395.31	241.14
395.69	241.48
396.06	241.43
396.44	241.52
396.82	241.05
397.19	242.43
397.57	242.10
397.95	242.48
398.32	241.43
398.70	241.33
399.07	241.86
399.45	241.67
399.82	241.90
400.20	241.62
400.58	242.00
400.95	241.05
401.33	241.81
401.70	243.62
402.08	244.29
402.45	244.62
402.83	245.33
403.20	245.29
403.58	245.43
403.95	245.86
404.33	246.52
404.71	246.81
405.08	247.95
405.46	248.52
405.83	248.86
406.21	249.33
406.58	249.76
406.96	250.00
407.33	250.76
407.70	251.52
408.08	254.24
408.45	254.62
408.83	256.14
409.20	256.38
409.58	255.29
409.95	256.33
410.33	257.81
410.70	257.86
411.08	259.43
411.45	260.67
411.82	261.57
412.20	263.00
412.57	265.48
412.95	265.24
413.32	266.86
413.69	268.19
414.07	270.05
414.44	271.90
414.82	273.86
415.19	276.24
415.56	278.24
415.94	279.38
416.31	282.29
416.68	285.05
417.06	288.29
417.43	292.67
417.81	296.00
418.18	299.24
418.55	303.19
418.93	307.19
419.30	311.24
419.67	316.43
420.04	320.67
420.42	324.95
420.79	332.52
421.16	337.95
421.54	345.57
421.91	352.00
422.28	358.52
422.66	365.10
423.03	373.29
423.40	380.90
423.77	388.24
424.15	395.62
424.52	403.48
424.89	412.19
425.26	419.29
425.64	427.48
426.01	435.33
426.38	444.24
426.75	453.95
427.13	463.48
427.50	472.57
427.87	482.86
428.24	492.43
428.61	500.19
428.99	512.29
429.36	522.10
429.73	532.90
430.10	544.38
430.47	556.48
430.85	567.19
431.22	580.19
431.59	595.62
431.96	609.00
432.33	623.19
432.70	637.76
433.08	654.19
433.45	669.19
433.82	684.81
434.19	701.86
434.56	718.05
434.93	732.48
435.30	747.95
435.68	764.71
436.05	782.14
436.42	798.52
436.79	812.43
437.16	829.00
437.53	846.14
437.90	862.52
438.27	879.62
438.64	896.10
439.01	910.62
439.38	922.14
439.75	935.57
440.13	950.14
440.50	963.05
440.87	974.52
441.24	986.24
441.61	999.33
441.98	1008.38
442.35	1018.48
442.72	1029.95
443.09	1041.90
443.46	1048.14
443.83	1052.29
444.20	1054.90
444.57	1060.14
444.94	1061.57
445.31	1063.52
445.68	1068.81
446.05	1068.29
446.42	1065.43
446.79	1063.86
447.16	1060.43
447.53	1057.29
447.90	1050.24
448.27	1043.05
448.64	1033.19
449.01	1025.05
449.37	1012.67
449.74	1000.86
450.11	988.57
450.48	973.95
450.85	957.10
451.22	943.29
451.59	930.52
451.96	919.24
452.33	903.19
452.70	889.33
453.07	872.33
453.43	851.81
453.80	834.86
454.17	820.24
454.54	804.10
454.91	788.10
455.28	772.76
455.65	758.05
456.02	747.76
456.38	735.19
456.75	721.10
457.12	708.14
457.49	696.24
457.86	682.86
458.23	673.10
458.59	662.10
458.96	651.48
459.33	641.05
459.70	630.67
460.07	623.05
460.43	613.29
460.80	605.19
461.17	597.57
461.54	590.24
461.91	581.95
462.27	574.48
462.64	568.10
463.01	560.71
463.38	554.71
463.74	543.90
464.11	537.86
464.48	533.05
464.85	527.38
465.21	523.00
465.58	518.67
465.95	512.57
466.32	508.38
466.68	503.86
467.05	499.19
467.42	494.95
467.78	489.90
468.15	485.90
468.52	483.29
468.88	479.00
469.25	474.76
469.62	471.95
469.98	468.33
470.35	465.05
470.72	462.29
471.08	457.81
471.45	455.43
471.82	453.24
472.18	449.14
472.55	446.86
472.92	443.57
473.28	440.90
473.65	438.29
474.02	435.67
474.38	433.86
474.75	431.90
475.11	430.00
475.48	428.95
475.85	427.19
476.21	424.52
476.58	423.57
476.94	422.52
477.31	421.43
477.67	420.86
478.04	419.95
478.41	418.76
478.77	421.05
479.14	419.57
479.50	418.48
479.87	418.52
480.23	418.62
480.60	418.38
480.96	418.62
481.33	420.29
481.69	420.81
482.06	421.38
482.42	422.67
482.79	424.00
483.15	424.71
483.52	426.29
483.88	427.48
484.25	428.43
484.61	429.76
484.98	430.67
485.34	432.48
485.71	434.62
486.07	436.52
486.44	435.38
486.80	437.57
487.17	439.00
487.53	441.38
487.90	443.24
488.26	445.90
488.62	448.14
488.99	449.00
489.35	450.57
489.72	451.57
490.08	453.19
490.44	454.33
490.81	456.48
491.17	458.10
491.54	460.38
491.90	463.10
492.26	465.33
492.63	468.10
492.99	469.62
493.36	472.33
493.72	475.62
494.08	478.67
494.45	481.81
494.81	485.24
495.17	488.10
495.54	491.57
495.90	494.19
496.26	497.29
496.63	500.67
496.99	504.14
497.35	508.33
497.72	512.14
498.08	515.67
498.44	519.33
498.80	523.95
499.17	527.95
499.53	532.00
499.89	537.14
500.26	541.52
500.62	546.29
500.98	550.81
501.34	555.00
501.71	560.24
502.07	564.90
502.43	569.62
502.79	573.95
503.16	578.24
503.52	583.00
503.88	587.62
504.24	592.90
504.60	599.00
504.97	604.67
505.33	609.19
505.69	615.43
506.05	621.10
506.41	626.29
506.78	631.33
507.14	636.05
507.50	641.38
507.86	646.57
508.22	652.38
508.59	657.48
508.95	662.95
509.31	669.43
509.67	674.67
510.03	679.81
510.39	685.67
510.75	691.71
511.12	696.95
511.48	702.19
511.84	706.81
512.20	711.05
512.56	715.24
512.92	720.90
513.28	725.67
513.64	729.38
514.00	734.05
514.37	738.86
514.73	744.05
515.09	748.10
515.45	752.29
515.81	755.90
516.17	760.24
516.53	764.38
516.89	766.62
517.25	770.62
517.61	775.14
517.97	777.86
518.33	781.24
518.69	785.67
519.05	790.00
519.41	794.10
519.77	799.33
520.13	803.24
520.49	806.52
520.85	809.90
521.21	814.33
521.57	818.00
521.93	820.05
522.29	823.48
522.65	825.52
523.01	828.57
523.37	830.76
523.73	832.90
524.09	834.86
524.45	837.00
524.81	839.38
525.17	841.38
525.53	844.52
525.89	846.57
526.25	848.29
526.61	849.00
526.97	849.90
527.33	851.05
527.68	853.86
528.04	855.33
528.40	855.33
528.76	856.57
529.12	857.38
529.48	860.33
529.84	859.90
530.20	862.10
530.56	863.86
530.91	866.33
531.27	867.14
531.63	868.19
531.99	869.38
532.35	869.43
532.71	870.00
533.07	871.48
533.42	874.67
533.78	875.48
534.14	876.71
534.50	877.67
534.86	879.10
535.21	878.67
535.57	879.76
535.93	881.67
536.29	883.76
536.65	884.57
537.00	885.86
537.36	888.33
537.72	889.81
538.08	891.62
538.44	892.86
538.79	896.38
539.15	899.19
539.51	902.10
539.87	904.71
540.22	906.57
540.58	908.57
540.94	908.52
541.29	910.76
541.65	913.71
542.01	917.05
542.37	918.05
542.72	919.29
543.08	919.90
543.44	920.90
543.79	919.33
544.15	919.57
544.51	919.38
544.87	918.33
545.22	917.43
545.58	916.10
545.94	914.48
546.29	911.19
546.65	908.71
547.01	905.05
547.36	902.71
547.72	900.67
548.07	896.95
548.43	893.57
548.79	890.48
549.14	885.95
549.50	882.05
549.86	878.10
550.21	874.62
550.57	872.00
550.92	868.86
551.28	867.38
551.64	864.57
551.99	861.62
552.35	859.19
552.70	856.19
553.06	853.19
553.41	850.76
553.77	849.95
554.13	847.67
554.48	846.90
554.84	844.71
555.19	842.52
555.55	842.52
555.90	840.86
556.26	838.71
556.61	837.38
556.97	834.38
557.32	832.43
557.68	831.38
558.03	829.19
558.39	827.19
558.74	825.57
559.10	823.95
559.45	822.48
559.81	820.48
560.16	818.67
560.52	817.10
560.87	816.00
561.23	813.81
561.58	814.76
561.94	812.43
562.29	811.48
562.64	810.52
563.00	807.14
563.35	805.95
563.71	803.86
564.06	802.24
564.42	801.38
564.77	800.19
565.12	797.95
565.48	798.95
565.83	797.95
566.19	795.90
566.54	794.48
566.89	792.76
567.25	792.71
567.60	792.48
567.96	792.71
568.31	792.00
568.66	791.76
569.02	787.95
569.37	786.52
569.72	784.81
570.08	782.90
570.43	781.48
570.78	779.19
571.14	778.33
571.49	776.76
571.84	775.76
572.20	774.19
572.55	773.43
572.90	770.48
573.26	769.38
573.61	767.57
573.96	766.95
574.31	766.29
574.67	763.90
575.02	761.95
575.37	759.57
575.72	757.24
576.08	754.24
576.43	752.90
576.78	751.71
577.13	750.14
577.49	748.81
577.84	747.38
578.19	746.33
578.54	745.43
578.90	744.52
579.25	743.81
579.60	742.52
579.95	740.62
580.30	738.52
580.66	737.90
581.01	736.33
581.36	735.14
581.71	733.29
582.06	733.24
582.42	731.52
582.77	729.29
583.12	728.29
583.47	727.67
583.82	726.19
584.17	724.90
584.53	724.33
584.88	722.71
585.23	722.95
585.58	720.57
585.93	717.76
586.28	715.86
586.63	713.48
586.98	712.10
587.34	710.71
587.69	708.33
588.04	705.24
588.39	703.38
588.74	700.38
589.09	698.43
589.44	694.52
589.79	692.43
590.14	690.19
590.49	687.00
590.84	683.48
591.19	680.10
591.54	676.81
591.89	672.81
592.25	671.57
592.60	666.52
592.95	664.38
593.30	662.24
593.65	659.05
594.00	655.57
594.35	658.76
594.70	656.05
595.05	653.86
595.40	650.67
595.75	647.52
596.10	644.90
596.45	641.29
596.80	638.76
597.15	635.76
597.50	632.71
597.85	630.62
598.19	627.90
598.54	625.86
598.89	623.24
599.24	620.62
599.59	616.43
599.94	614.00
600.29	611.62
600.64	609.29
600.99	607.43
601.34	605.76
601.69	596.90
602.04	594.10
602.39	591.05
602.74	589.24
603.08	587.43
603.43	585.67
603.78	583.81
604.13	582.14
604.48	580.48
604.83	579.67
605.18	578.90
605.53	578.95
605.87	580.14
606.22	583.38
606.57	588.48
606.92	593.62
607.27	599.67
607.62	605.81
607.96	611.81
608.31	616.24
608.66	620.48
609.01	624.00
609.36	628.00
609.70	632.14
610.05	634.05
610.40	636.81
610.75	638.43
611.10	640.86
611.44	642.19
611.79	642.43
612.14	642.33
612.49	640.90
612.83	638.38
613.18	634.81
613.53	629.43
613.88	621.43
614.22	613.81
614.57	604.76
614.92	595.86
615.27	586.90
615.61	579.33
615.96	572.05
616.31	565.57
616.65	560.05
617.00	553.24
617.35	548.00
617.70	542.00
618.04	537.14
618.39	531.33
618.74	526.71
619.08	522.24
619.43	518.05
619.78	513.86
620.12	511.52
620.47	508.38
620.82	505.00
621.16	502.43
621.51	501.10
621.85	498.71
622.20	496.19
622.55	493.43
622.89	491.05
623.24	488.71
623.59	486.00
623.93	482.90
624.28	481.00
624.62	481.52
624.97	481.10
625.32	478.29
625.66	476.19
626.01	474.19
626.35	472.67
626.70	471.19
627.04	470.86
627.39	469.24
627.73	468.52
628.08	467.14
628.43	465.29
628.77	462.19
629.12	460.48
629.46	458.52
629.81	456.90
630.15	455.14
630.50	453.00
630.84	451.10
631.19	448.71
631.53	446.67
631.88	441.29
632.22	437.86
632.57	436.33
632.91	434.48
633.26	432.90
633.60	430.86
633.95	428.00
634.29	424.71
634.64	422.00
634.98	419.14
635.32	417.76
635.67	416.19
636.01	414.24
636.36	412.19
636.70	410.38
637.05	407.81
637.39	405.14
637.73	403.57
638.08	402.19
638.42	400.24
638.77	399.10
639.11	398.05
639.45	395.86
639.80	393.86
640.14	392.81
640.49	390.52
640.83	388.86
641.17	388.05
641.52	386.71
641.86	385.57
642.20	384.71
642.55	382.76
642.89	381.57
643.23	380.10
643.58	379.86
643.92	378.48
644.26	378.19
644.61	378.19
644.95	377.52
645.29	376.38
645.64	376.19
645.98	375.24
646.32	375.19
646.66	374.52
647.01	373.43
647.35	372.57
647.69	372.05
648.04	371.86
648.38	370.90
648.72	369.90
649.06	368.67
649.41	367.00
649.75	366.10
650.09	365.48
650.43	364.33
650.78	362.43
651.12	361.52
651.46	360.24
651.80	358.67
652.14	356.86
652.49	356.19
652.83	354.86
653.17	353.38
653.51	351.71
653.85	350.71
654.20	350.10
654.54	348.71
654.88	347.33
655.22	345.29
655.56	343.67
655.90	342.76
656.25	341.71
656.59	340.81
656.93	339.90
657.27	339.10
657.61	338.19
657.95	338.29
658.29	337.71
658.64	337.71
658.98	336.76
659.32	335.86
659.66	335.00
660.00	334.24
660.34	333.67
660.68	333.19
661.02	332.76
661.36	331.57
661.70	330.52
662.05	329.90
662.39	330.43
662.73	331.00
663.07	332.24
663.41	331.62
663.75	330.67
664.09	329.90
664.43	328.62
664.77	328.29
665.11	326.90
665.45	325.90
665.79	325.19
666.13	324.29
666.47	323.62
666.81	322.48
667.15	321.19
667.49	320.24
667.83	319.76
668.17	318.86
668.51	318.48
668.85	318.33
669.19	318.81
669.53	317.14
669.87	315.95
670.21	313.62
670.55	313.05
670.89	314.00
671.23	313.62
671.57	313.14
671.91	312.86
672.25	312.29
672.58	313.10
672.92	311.62
673.26	311.33
673.60	310.90
673.94	310.62
674.28	310.38
674.62	310.24
674.96	309.24
675.30	308.48
675.64	307.81
675.97	307.19
676.31	305.67
676.65	305.43
676.99	305.48
677.33	305.10
677.67	304.57
678.01	302.38
678.34	301.71
678.68	301.86
679.02	300.43
679.36	299.76
679.70	298.00
680.04	297.52
680.37	297.10
680.71	296.67
681.05	296.52
681.39	296.19
681.73	295.48
682.06	295.10
682.40	295.24
682.74	295.10
683.08	295.38
683.42	295.00
683.75	295.05
684.09	294.10
684.43	293.62
684.77	293.10
685.10	293.10
685.44	292.86
685.78	291.76
686.12	291.71
686.45	291.52
686.79	291.24
687.13	291.43
687.46	291.19
687.80	291.38
688.14	290.52
688.48	290.33
688.81	290.43
689.15	291.10
689.49	290.43
689.82	290.14
690.16	288.81
690.50	288.38
690.83	287.52
691.17	286.57
691.51	286.19
691.84	286.38
692.18	285.95
692.52	285.10
692.85	285.29
693.19	286.05
693.52	285.57
693.86	285.24
694.20	284.90
694.53	284.52
694.87	283.43
695.21	283.14
695.54	282.48
695.88	281.33
696.21	280.00
696.55	279.76
696.88	279.38
697.22	279.00
697.56	279.24
697.89	278.67
698.23	279.05
698.56	278.43
698.90	278.38
699.23	278.10
699.57	278.14
699.90	277.19
700.24	276.05
700.58	276.05
700.91	276.19
701.25	278.00
701.58	279.10
701.92	280.29
702.25	280.52
702.59	281.05
702.92	281.57
703.26	281.86
703.59	282.14
703.93	284.52
704.26	285.24
704.60	285.38
704.93	286.05
705.26	286.24
705.60	287.29
705.93	287.14
706.27	288.29
706.60	289.14
706.94	290.81
707.27	291.19
707.61	291.33
707.94	291.52
708.27	289.48
708.61	288.57
708.94	288.24
709.28	288.05
709.61	287.24
709.94	286.95
710.28	286.43
710.61	285.71
710.95	283.00
711.28	284.14
711.61	283.24
711.95	283.10
712.28	281.81
712.61	280.76
712.95	281.38
713.28	281.33
713.61	280.19
713.95	278.48
714.28	277.71
714.61	276.95
714.95	275.76
715.28	274.76
715.61	274.00
715.95	272.81
716.28	271.86
716.61	271.95
716.95	271.24
717.28	270.76
717.61	270.43
717.94	269.86
718.28	267.29
718.61	267.00
718.94	266.14
719.27	266.10
719.61	266.05
719.94	265.10
720.27	263.67
720.60	263.33
720.94	263.00
721.27	263.05
721.60	263.10
721.93	262.86
722.27	263.62
722.60	263.76
722.93	263.76
723.26	263.81
723.59	262.90
723.93	263.19
724.26	263.33
724.59	263.10
724.92	263.43
725.25	264.19
725.59	263.81
725.92	264.19
726.25	263.67
726.58	263.57
726.91	262.95
727.24	263.14
727.57	263.05
727.91	263.10
728.24	262.62
728.57	262.43
728.90	262.86
729.23	262.00
729.56	262.71
729.89	262.86
730.22	262.52
730.55	262.52
730.89	262.10
731.22	261.43
731.55	261.19
731.88	260.67
732.21	259.86
732.54	259.43
732.87	259.05
733.20	259.43
733.53	259.48
733.86	259.52
734.19	259.24
734.52	259.33
734.85	260.38
735.18	260.10
735.51	260.52
735.84	260.14
736.17	260.43
736.50	259.00
736.83	261.33
737.16	261.43
737.49	261.38
737.82	260.95
738.15	261.19
738.48	261.29
738.81	261.00
739.14	260.71
739.47	260.86
739.80	260.43
740.13	260.57
740.46	259.90
740.79	259.29
741.12	258.86
741.45	258.38
741.78	257.14
742.11	257.71
742.44	257.10
742.77	257.33
743.10	257.00
743.43	256.76
743.75	254.24
744.08	257.43
744.41	257.29
744.74	257.24
745.07	256.90
745.40	257.24
745.73	258.38
746.06	258.33
746.39	258.48
746.71	258.14
747.04	257.62
747.37	257.48
747.70	257.90
748.03	257.86
748.36	258.00
748.68	257.76
749.01	256.86
749.34	256.81
749.67	256.76
750.00	256.76
750.33	258.62
750.65	258.52
750.98	255.14
751.31	254.95
751.64	255.29
751.97	256.67
752.29	255.90
752.62	254.71
752.95	254.33
753.28	253.86
753.60	253.71
753.93	254.29
754.26	254.10
754.59	253.29
754.91	253.38
755.24	253.29
755.57	253.14
755.90	253.14
756.22	252.71
756.55	252.29
756.88	251.95
757.20	250.14
757.53	249.48
757.86	249.67
758.19	250.05
758.51	249.52
758.84	248.05
759.17	247.71
759.49	247.67
759.82	248.90
760.15	249.29
760.47	249.38
760.80	248.71
761.13	249.29
761.45	249.43
761.78	249.00
762.11	248.95
762.43	248.90
762.76	248.52
763.08	249.29
763.41	249.29
763.74	249.57
764.06	249.33
764.39	249.33
764.71	248.90
765.04	248.38
765.37	248.24
765.69	247.67
766.02	247.95
766.34	248.05
766.67	246.86
767.00	247.24
767.32	248.62
767.65	250.05
767.97	250.05
768.30	250.05
768.62	250.05
768.95	249.67
769.27	249.43
769.60	250.43
769.92	249.57
770.25	249.33
770.57	248.62
770.90	248.67
771.22	248.19
771.55	247.90
771.87	248.14
772.20	248.24
772.52	250.76
772.85	253.62
773.17	253.24
773.50	253.19
773.82	252.48
774.15	250.90
774.47	249.14
774.80	248.52
775.12	248.48
775.45	248.33
775.77	248.10
776.09	248.43
776.42	248.05
776.74	248.71
777.07	248.62
777.39	248.67
777.72	248.29
778.04	248.76
778.36	248.86
778.69	248.81
779.01	248.76
779.33	246.76
779.66	244.10
779.98	244.05
780.31	244.33
780.63	245.52
780.95	246.10
781.28	246.10
781.60	245.90
781.92	245.95
782.25	246.10
782.57	246.33
782.89	246.05
783.22	245.95
783.54	245.29
783.86	245.14
784.19	245.10
784.51	245.86
784.83	245.52
785.16	245.57
785.48	245.71
785.80	245.95
786.12	245.95
786.45	245.81
786.77	245.81
787.09	245.57
787.42	244.43
787.74	244.62
788.06	244.62
788.38	244.62
788.71	244.33
789.03	244.67
789.35	245.10
789.67	244.81
789.99	244.52
790.32	244.57
790.64	244.81
790.96	246.57
791.28	245.81
791.61	245.71
791.93	245.76
792.25	245.24
792.57	246.71
792.89	246.19
793.21	246.29
793.54	246.00
793.86	245.90
794.18	246.14
794.50	245.67
794.82	245.52
795.14	245.76
795.47	246.52
795.79	246.00
796.11	245.43
796.43	245.29
796.75	245.43
797.07	245.19
797.39	245.14
797.71	243.62
798.04	243.62
798.36	243.62
798.68	243.48
799.00	243.86
799.32	242.43
799.64	242.62
799.96	242.67
800.28	243.38
800.60	243.29
800.92	243.38
801.24	242.95
801.56	243.29
801.89	243.29
802.21	243.10
802.53	243.10
802.85	243.33
803.17	244.48
803.49	244.05
803.81	244.19
804.13	244.24
804.45	243.90
804.77	244.33
805.09	244.62
805.41	244.52
805.73	244.14
806.05	244.10
806.37	244.24
806.69	244.00
807.01	243.71
807.33	243.71
807.65	242.86
807.97	244.48
808.28	244.24
808.60	244.05
808.92	243.52
809.24	244.57
809.56	244.48
809.88	243.57
810.20	243.95
810.52	244.38
810.84	243.95
811.16	243.48
811.48	243.38
811.80	244.14
812.12	244.14
812.43	244.52
812.75	244.38
813.07	243.86
813.39	243.67
813.71	243.52
814.03	243.67
814.35	243.86
814.67	242.71
814.98	242.81
815.30	242.71
815.62	242.76
815.94	241.29
816.26	242.43
816.58	241.86
816.89	242.00
817.21	241.38
817.53	241.52
817.85	242.00
818.17	241.86
818.48	240.71
818.80	241.14
819.12	240.95
819.44	240.52
819.76	240.86
820.07	241.10
820.39	241.29
820.71	240.95
821.03	240.90
821.34	240.76
821.66	240.52
821.98	241.10
822.30	240.81
822.61	242.52
822.93	241.14
823.25	241.24
823.57	240.81
823.88	241.43
824.20	241.24
824.52	241.71
824.83	241.62
825.15	241.19
825.47	241.05
825.79	241.00
826.10	240.76
826.42	240.57
826.74	240.48
827.05	240.24
827.37	240.38
827.69	240.52
828.00	240.62
828.32	240.67
828.64	239.95
828.95	241.33
829.27	240.71
829.58	240.86
829.90	241.52
830.22	241.81
830.53	241.29
830.85	241.38
831.17	240.62
831.48	240.62
831.80	241.24
832.11	240.95
832.43	240.71
832.75	241.00
833.06	242.29
833.38	241.90
833.69	241.62
834.01	242.05
834.32	241.71
834.64	241.29
834.96	241.52
835.27	241.57
835.59	240.86
835.90	240.19
836.22	240.10
836.53	239.57
836.85	239.43
837.16	241.62
837.48	241.52
837.79	242.76
838.11	242.90
838.42	242.86
838.74	243.38
839.05	243.29
839.37	243.38
839.68	242.33
840.00	242.48
840.31	242.86
840.63	242.67
840.94	242.67
841.26	242.57
841.57	242.62
841.88	242.62
842.20	242.05
842.51	242.00
842.83	242.14
843.14	244.38
843.46	244.43
843.77	243.19
844.08	243.05
844.40	242.05
844.71	241.90
845.03	241.52
845.34	241.19
845.65	241.14
845.97	240.95
846.28	240.71
846.60	241.10
846.91	240.33
847.22	240.10
847.54	240.67
847.85	240.76
848.16	240.52
848.48	240.38
848.79	241.48
849.10	241.81
849.42	241.76
849.73	239.57
850.04	239.29
850.36	238.52
850.67	238.95
850.98	238.76
851.30	239.05
851.61	239.38
851.92	239.38
852.23	240.38
852.55	240.67
852.86	241.05
853.17	240.86
853.49	241.71
853.80	242.33
854.11	242.48
854.42	243.29
854.74	243.14
855.05	243.38
855.36	241.95
855.67	241.57
855.99	241.62
856.30	244.33
856.61	244.43
856.92	244.33
857.23	244.29
857.55	244.38
857.86	243.95
858.17	244.14
858.48	243.95
858.79	243.52
859.11	243.52
859.42	243.43
859.73	243.05
860.04	242.90
860.35	242.00
860.66	241.19
860.98	240.67
861.29	241.14
861.60	241.05
861.91	241.90
862.22	242.00
862.53	241.52
862.84	239.10
863.16	239.71
863.47	239.29
863.78	239.33
864.09	239.43
864.40	239.62
864.71	239.57
865.02	239.76
865.33	239.24
865.64	239.05
865.95	238.52
866.27	240.29
866.58	240.05
866.89	240.71
867.20	240.52
867.51	240.19
867.82	239.95
868.13	240.67
868.44	239.95
868.75	240.48
869.06	240.76
869.37	240.67
869.68	239.62
869.99	240.38
870.30	240.38
870.61	240.67
870.92	240.48
871.23	240.14
871.54	240.71
871.85	241.71
872.16	241.62
872.47	241.76
872.78	240.19
873.09	240.52
873.40	240.05
873.71	240.38
874.02	240.71
874.33	240.43
874.64	239.90
874.95	240.43
875.26	239.71
875.56	239.76
875.87	239.57
876.18	239.81
876.49	242.29
876.80	241.95
877.11	241.43
877.42	241.38
877.73	241.38
878.04	240.67
878.35	240.14
878.66	240.38
878.96	240.24
879.27	240.29
879.58	240.00
879.89	239.86
880.20	240.67
880.51	240.48
880.82	240.33
881.12	240.19
881.43	239.71
881.74	239.52
882.05	239.14
882.36	239.71
882.67	240.05
882.97	236.90
883.28	236.90
883.59	237.10
883.90	237.48
884.21	238.19
884.51	238.19
884.82	237.76
885.13	237.67
885.44	237.71
885.74	238.05
886.05	237.86
886.36	238.10
886.67	237.24
886.98	238.57
887.28	238.86
887.59	238.71
887.90	239.05
888.20	239.05
888.51	239.62
888.82	238.62
889.13	238.86
889.43	241.19
889.74	240.95
890.05	240.76
890.35	240.38
890.66	239.76
890.97	239.48
891.28	239.33
891.58	239.38
891.89	239.48
892.20	238.67
892.50	238.57
892.81	238.71
893.12	238.67
893.42	237.14
893.73	237.24
894.04	237.57
894.34	237.86
894.65	237.52
894.95	237.52
895.26	238.00
895.57	238.95
895.87	236.71
896.18	237.33
896.48	237.57
896.79	237.76
897.10	238.33
897.40	238.43
897.71	238.43
898.01	238.48
898.32	238.76
898.63	238.86
898.93	239.38
899.24	238.95
899.54	238.81
899.85	238.95
900.15	239.05
900.46	238.90
900.76	238.76
901.07	238.95
901.38	238.90
901.68	239.19
901.99	238.05
902.29	237.86
902.60	237.67
902.90	237.38
903.21	237.52
903.51	237.10
903.82	237.76
904.12	238.00
904.43	238.10
904.73	238.05
905.03	238.29
905.34	240.67
905.64	240.81
905.95	240.90
906.25	240.86
906.56	240.71
906.86	240.81
907.17	240.52
907.47	240.71
907.77	240.43
908.08	240.14
908.38	240.05
908.69	240.33
908.99	240.62
909.30	240.76
909.60	240.43
909.90	240.48
910.21	239.43
910.51	239.14
910.81	238.86
911.12	238.81
911.42	238.90
911.73	236.38
912.03	236.43
912.33	236.95
912.64	236.95
912.94	236.71
913.24	236.24
913.55	236.14
913.85	235.90
914.15	236.43
914.46	236.33
914.76	236.19
915.06	236.38
915.37	235.95
915.67	235.62
915.97	235.57
916.27	235.24
916.58	235.67
916.88	235.76
917.18	236.00
917.49	237.67
917.79	237.57
918.09	237.76
918.39	238.43
918.70	238.33
919.00	238.24
919.30	239.33
919.60	239.33
919.91	239.19
920.21	239.48
920.51	238.71
920.81	238.76
921.12	239.29
921.42	238.90
921.72	239.14
922.02	239.57
922.32	240.05
922.63	239.90
922.93	241.24
923.23	241.24
923.53	240.95
923.83	239.33
924.13	239.62
924.44	239.52
924.74	239.86
925.04	240.29
925.34	240.38
925.64	239.48
925.94	239.48
926.24	240.86
926.55	240.67
926.85	241.14
927.15	240.90
927.45	241.05
927.75	241.24
928.05	241.24
928.35	241.10
928.65	241.29
928.95	241.71
929.26	240.62
929.56	241.29
929.86	241.57
930.16	241.43
930.46	241.48
930.76	241.43
931.06	240.24
931.36	239.67
931.66	240.24
931.96	240.71
932.26	241.00
932.56	240.00
932.86	240.00
933.16	240.00
933.46	239.95
933.76	239.29
934.06	240.05
934.36	241.19
934.66	241.00
934.96	240.95
935.26	241.33
935.56	241.71
935.86	240.67
936.16	240.38
936.46	240.43
936.76	239.76
937.06	239.52
937.36	240.14
937.66	240.14
937.96	239.76
938.26	239.10
938.56	238.90
938.86	239.10
939.16	239.90
939.46	240.05
939.76	240.38
940.06	240.33
940.35	239.67
940.65	238.29
940.95	238.57
941.25	237.90
941.55	237.14
941.85	236.76
942.15	237.67
942.45	238.24
942.75	237.90
943.04	238.38
943.34	239.00
943.64	238.38
943.94	238.14
944.24	238.24
944.54	238.38
944.84	238.33
945.13	237.86
945.43	237.19
945.73	237.05
946.03	237.00
946.33	236.86
946.62	236.48
946.92	236.24
947.22	236.52
947.52	237.05
947.82	237.67
948.11	237.57
948.41	236.81
948.71	236.00
949.01	236.10
949.31	235.90
949.60	235.90
949.90	236.52
950.20	236.57
950.50	236.33
950.79	236.24
951.09	236.62
951.39	236.76
951.69	236.62
951.98	237.19
952.28	237.33
952.58	237.14
952.87	237.43
953.17	237.86
953.47	237.38
953.76	237.10
954.06	236.48
954.36	236.29
954.66	236.62
954.95	237.81
955.25	238.33
955.55	238.38
955.84	237.62
956.14	237.48
956.44	237.81
956.73	237.62
957.03	237.95
957.32	238.00
957.62	237.57
957.92	238.10
958.21	237.52
958.51	239.86
958.81	240.29
959.10	240.71
959.40	241.38
959.69	241.76
959.99	242.29
960.29	242.62
960.58	242.52
960.88	243.52
961.17	243.05
961.47	242.95
961.76	242.90
962.06	243.33
962.36	243.33
962.65	243.00
962.95	243.10
963.24	242.71
963.54	242.81
963.83	243.43
964.13	243.43
964.42	242.76
964.72	240.90
965.01	241.14
965.31	240.57
965.60	239.95
965.90	241.38
966.19	240.43
966.49	240.10
966.78	240.14
967.08	239.76
967.37	239.62
967.67	239.14
967.96	239.71
968.26	239.67
968.55	240.05
968.85	240.29
969.14	240.62
969.43	240.71
969.73	240.33
970.02	240.00
970.32	239.57
970.61	239.90
970.91	239.14
971.20	238.67
971.49	238.62
971.79	238.76
972.08	236.86
972.38	237.43
972.67	237.62
972.96	238.05
973.26	237.52
973.55	238.43
973.85	238.38
974.14	238.00
974.43	238.19
974.73	237.71
975.02	237.29
975.31	237.19
975.61	236.86
975.90	236.76
976.19	236.52
976.49	236.95
976.78	237.05
977.07	237.19
977.37	237.52
977.66	237.71
977.95	237.48
978.24	237.76
978.54	238.10
978.83	237.86
979.12	237.67
979.42	237.81
979.71	237.19
980.00	237.29
980.29	237.33
980.59	236.90
980.88	237.29
981.17	237.29
981.46	237.14
981.76	237.05
982.05	237.71
982.34	237.95
982.63	238.05
982.93	238.10
983.22	238.90
983.51	238.86
983.80	239.14
984.09	239.43
984.39	239.14
984.68	238.52
984.97	239.00
985.26	238.90
985.55	238.86
985.85	238.33
986.14	238.29
986.43	238.62
986.72	238.52
987.01	237.71
987.30	237.71
987.59	237.57
987.89	237.95
988.18	237.38
988.47	237.10
988.76	236.76
989.05	236.62
989.34	235.95
989.63	236.48
989.92	235.86
990.22	235.48
990.51	235.90
990.80	236.24
991.09	236.05
991.38	236.24
991.67	236.43
991.96	236.24
992.25	236.90
992.54	236.57
992.83	236.67
993.12	236.57
993.41	237.33
993.70	238.43
993.99	238.95
994.28	239.05
994.58	239.67
994.87	239.48
995.16	239.52
995.45	239.43
995.74	238.57
996.03	239.24
996.32	239.95
996.61	240.14
996.90	240.05
997.19	239.95
997.48	239.62
997.77	239.00
998.06	239.05
998.34	238.76
998.63	238.86
998.92	238.95
999.21	239.62
999.50	239.57
999.79	238.81
1000.08	238.57
1000.37	238.48
1000.66	238.19
1000.95	239.00
1001.24	239.29
1001.53	239.57
1001.82	239.57
1002.11	239.29
1002.40	238.95
1002.68	239.67
1002.97	241.33
1003.26	241.05
1003.55	241.05
1003.84	241.52
1004.13	242.76
1004.42	242.43
1004.71	242.33
1004.99	242.10
1005.28	242.38
1005.57	241.86
1005.86	241.76
1006.15	241.57
1006.44	241.33
1006.72	241.43
1007.01	240.90
1007.30	240.76
1007.59	240.52
1007.88	240.81
1008.17	240.95
1008.45	240.67
1008.74	239.38
1009.03	238.33
1009.32	238.52
1009.60	238.29
1009.89	237.67
1010.18	236.29
1010.47	236.19
1010.76	235.81
1011.04	235.95
1011.33	235.76
1011.62	236.19
1011.91	236.10
1012.19	236.19
1012.48	236.67
1012.77	236.76
1013.05	238.10
1013.34	237.95
1013.63	237.67
1013.92	237.52
1014.20	237.38
1014.49	237.62
1014.78	237.71
1015.06	236.67
1015.35	236.57
1015.64	237.10
1015.92	237.95
1016.21	238.19
1016.50	238.38
1016.78	238.86
1017.07	238.95
1017.36	238.71
1017.64	238.24
1017.93	238.43
1018.22	238.10
1018.50	237.71
1018.79	237.33
1019.08	235.62
1019.36	235.76
1019.65	235.90
1019.93	236.67
1020.22	236.76
1020.51	237.90
1020.79	237.62
1021.08	231.00
1021.36	232.00
1021.65	233.00
1021.94	231.00
1022.22	236.00
1022.51	235.00
1022.79	250.00
1023.08	240.00
1023.36	267.00
1023.65	227.00
>>>>>End Processed Spectral Data<<<<<
