SpectraSuite Data File
++++++++++++++++++++++++++++++++++++
Date: Wed Nov 07 18:32:44 EST 2012
User: group
Dark Spectrum Present: No
Reference Spectrum Present: No
Number of Sampled Component Spectra: 1
Spectrometers: USB2E7196
Integration Time (usec): 1000000 (USB2E7196)
Spectra Averaged: 1 (USB2E7196)
Boxcar Smoothing: 10 (USB2E7196)
Correct for Electrical Dark: No (USB2E7196)
Strobe/Lamp Enabled: No (USB2E7196)
Correct for Detector Non-linearity: No (USB2E7196)
Correct for Stray Light: No (USB2E7196)
Number of Pixels in Processed Spectrum: 2048
>>>>>Begin Processed Spectral Data<<<<<
339.09	0.00
339.48	222.00
339.86	221.00
340.24	221.00
340.63	218.00
341.01	263.00
341.39	227.00
341.78	235.00
342.16	238.00
342.54	235.00
342.93	224.48
343.31	235.67
343.69	236.33
344.07	237.14
344.46	238.14
344.84	239.24
345.22	238.14
345.60	238.71
345.99	238.71
346.37	238.90
346.75	238.62
347.13	238.67
347.52	238.76
347.90	239.57
348.28	239.71
348.66	240.05
349.05	239.10
349.43	239.29
349.81	239.43
350.19	239.52
350.57	239.52
350.96	240.38
351.34	240.90
351.72	240.95
352.10	241.33
352.48	240.95
352.87	241.10
353.25	240.90
353.63	240.86
354.01	240.81
354.39	241.05
354.77	241.76
355.15	242.48
355.54	242.67
355.92	241.76
356.30	241.71
356.68	243.48
357.06	243.81
357.44	243.38
357.82	243.43
358.20	243.81
358.58	243.86
358.97	243.57
359.35	243.86
359.73	244.48
360.11	243.90
360.49	244.05
360.87	243.86
361.25	244.24
361.63	244.81
362.01	245.19
362.39	244.76
362.77	244.48
363.15	244.10
363.53	243.90
363.91	244.52
364.29	244.62
364.67	242.10
365.05	241.95
365.43	242.43
365.81	242.57
366.19	243.57
366.57	244.48
366.95	244.19
367.33	243.38
367.71	243.19
368.09	244.05
368.47	244.24
368.85	244.05
369.23	244.33
369.61	243.76
369.99	244.67
370.37	244.95
370.75	246.10
371.13	245.48
371.51	245.05
371.89	245.00
372.27	245.29
372.65	245.67
373.03	245.76
373.41	245.57
373.78	245.33
374.16	244.05
374.54	243.10
374.92	242.90
375.30	242.86
375.68	242.29
376.06	242.05
376.44	241.95
376.82	242.19
377.19	241.81
377.57	241.76
377.95	240.62
378.33	240.52
378.71	239.29
379.09	239.86
379.47	240.00
379.84	239.52
380.22	239.10
380.60	238.57
380.98	238.62
381.36	238.71
381.73	238.71
382.11	238.86
382.49	238.95
382.87	238.67
383.25	238.86
383.62	241.95
384.00	241.19
384.38	241.19
384.76	241.57
385.13	243.00
385.51	242.76
385.89	242.52
386.27	242.67
386.64	243.14
387.02	242.71
387.40	242.71
387.78	243.24
388.15	243.14
388.53	243.24
388.91	242.95
389.29	242.33
389.66	242.48
390.04	242.33
390.42	242.71
390.79	243.00
391.17	242.81
391.55	239.76
391.92	240.29
392.30	240.57
392.68	239.81
393.05	239.38
393.43	239.62
393.81	240.14
394.18	239.57
394.56	239.43
394.94	240.29
395.31	239.71
395.69	240.29
396.06	240.81
396.44	240.62
396.82	240.62
397.19	242.14
397.57	241.95
397.95	242.29
398.32	241.86
398.70	242.19
399.07	242.90
399.45	243.00
399.82	242.62
400.20	242.38
400.58	242.62
400.95	241.52
401.33	242.05
401.70	243.62
402.08	243.76
402.45	243.71
402.83	243.81
403.20	244.43
403.58	244.19
403.95	244.43
404.33	245.33
404.71	245.48
405.08	247.05
405.46	247.43
405.83	247.48
406.21	247.62
406.58	248.19
406.96	248.52
407.33	249.19
407.70	250.24
408.08	252.76
408.45	253.57
408.83	254.57
409.20	254.81
409.58	253.71
409.95	255.10
410.33	255.86
410.70	256.33
411.08	257.86
411.45	258.95
411.82	259.86
412.20	261.48
412.57	264.48
412.95	263.71
413.32	265.81
413.69	267.71
414.07	269.86
414.44	271.29
414.82	273.19
415.19	275.71
415.56	277.95
415.94	279.19
416.31	282.43
416.68	285.48
417.06	289.43
417.43	293.33
417.81	296.43
418.18	300.62
418.55	304.38
418.93	308.19
419.30	312.43
419.67	317.24
420.04	321.52
420.42	325.71
420.79	333.67
421.16	338.90
421.54	345.86
421.91	351.81
422.28	358.48
422.66	365.38
423.03	373.48
423.40	380.48
423.77	387.71
424.15	394.57
424.52	402.67
424.89	410.95
425.26	418.24
425.64	426.19
426.01	434.24
426.38	443.33
426.75	452.81
427.13	462.05
427.50	471.76
427.87	481.57
428.24	491.67
428.61	499.48
428.99	511.38
429.36	521.86
429.73	533.05
430.10	544.67
430.47	556.86
430.85	567.38
431.22	580.19
431.59	596.00
431.96	609.10
432.33	622.95
432.70	637.33
433.08	654.33
433.45	670.29
433.82	686.10
434.19	702.90
434.56	719.24
434.93	734.81
435.30	750.86
435.68	767.71
436.05	784.48
436.42	800.52
436.79	815.52
437.16	832.24
437.53	848.76
437.90	865.71
438.27	882.19
438.64	899.86
439.01	916.33
439.38	927.24
439.75	941.00
440.13	956.86
440.50	970.33
440.87	981.95
441.24	993.76
441.61	1006.19
441.98	1016.05
442.35	1025.86
442.72	1037.29
443.09	1048.29
443.46	1055.19
443.83	1057.71
444.20	1060.76
444.57	1064.67
444.94	1064.95
445.31	1067.95
445.68	1072.62
446.05	1072.05
446.42	1068.62
446.79	1065.76
447.16	1062.71
447.53	1059.90
447.90	1051.90
448.27	1043.57
448.64	1033.48
449.01	1026.24
449.37	1013.76
449.74	1001.62
450.11	991.33
450.48	975.19
450.85	958.86
451.22	945.10
451.59	933.29
451.96	921.86
452.33	906.48
452.70	892.95
453.07	875.57
453.43	855.14
453.80	838.43
454.17	822.24
454.54	806.71
454.91	791.19
455.28	775.48
455.65	759.71
456.02	750.48
456.38	737.71
456.75	722.19
457.12	709.19
457.49	696.43
457.86	681.76
458.23	673.33
458.59	662.43
458.96	651.57
459.33	642.14
459.70	632.10
460.07	624.38
460.43	615.52
460.80	607.57
461.17	599.86
461.54	592.71
461.91	585.86
462.27	577.81
462.64	570.71
463.01	564.05
463.38	559.57
463.74	548.29
464.11	542.10
464.48	536.81
464.85	531.29
465.21	527.14
465.58	522.81
465.95	515.76
466.32	511.10
466.68	505.76
467.05	500.33
467.42	495.38
467.78	490.05
468.15	485.52
468.52	481.76
468.88	477.48
469.25	473.29
469.62	470.29
469.98	466.86
470.35	464.19
470.72	460.62
471.08	455.62
471.45	453.10
471.82	450.62
472.18	447.00
472.55	445.57
472.92	442.14
473.28	439.57
473.65	437.62
474.02	434.81
474.38	433.62
474.75	432.19
475.11	430.10
475.48	428.90
475.85	427.05
476.21	425.57
476.58	424.38
476.94	423.29
477.31	421.67
477.67	420.71
478.04	419.38
478.41	418.52
478.77	421.14
479.14	420.05
479.50	419.90
479.87	420.10
480.23	419.90
480.60	420.24
480.96	420.62
481.33	421.62
481.69	422.43
482.06	422.76
482.42	423.52
482.79	424.33
483.15	424.29
483.52	425.95
483.88	426.95
484.25	428.05
484.61	428.90
484.98	430.10
485.34	431.81
485.71	433.62
486.07	435.76
486.44	434.24
486.80	435.90
487.17	436.67
487.53	438.57
487.90	440.29
488.26	443.24
488.62	445.00
488.99	446.33
489.35	448.24
489.72	449.52
490.08	451.76
490.44	453.67
490.81	456.48
491.17	457.71
491.54	459.71
491.90	461.86
492.26	463.52
492.63	466.14
492.99	468.14
493.36	470.62
493.72	473.10
494.08	476.05
494.45	479.19
494.81	483.67
495.17	486.57
495.54	490.62
495.90	492.95
496.26	496.33
496.63	499.76
496.99	502.86
497.35	506.76
497.72	509.86
498.08	513.52
498.44	517.62
498.80	522.52
499.17	526.71
499.53	531.52
499.89	537.19
500.26	541.62
500.62	546.71
500.98	552.14
501.34	556.52
501.71	562.24
502.07	566.81
502.43	570.71
502.79	576.00
503.16	580.33
503.52	585.62
503.88	589.71
504.24	594.81
504.60	600.43
504.97	606.71
505.33	612.05
505.69	618.71
506.05	624.19
506.41	629.38
506.78	635.14
507.14	640.57
507.50	646.29
507.86	652.05
508.22	657.14
508.59	661.67
508.95	667.33
509.31	673.38
509.67	679.43
510.03	684.76
510.39	689.95
510.75	695.24
511.12	700.57
511.48	706.48
511.84	711.19
512.20	716.76
512.56	720.29
512.92	725.29
513.28	729.95
513.64	734.19
514.00	739.43
514.37	743.48
514.73	748.00
515.09	751.90
515.45	756.14
515.81	760.76
516.17	765.52
516.53	769.90
516.89	772.38
517.25	775.67
517.61	781.05
517.97	784.33
518.33	787.57
518.69	790.81
519.05	795.00
519.41	799.10
519.77	803.57
520.13	808.19
520.49	812.57
520.85	815.48
521.21	820.24
521.57	822.81
521.93	826.00
522.29	828.67
522.65	830.90
523.01	833.10
523.37	835.10
523.73	837.14
524.09	839.14
524.45	841.29
524.81	843.90
525.17	845.43
525.53	848.19
525.89	851.10
526.25	853.48
526.61	854.38
526.97	855.57
527.33	856.48
527.68	860.14
528.04	860.76
528.40	861.86
528.76	862.76
529.12	864.62
529.48	865.76
529.84	867.19
530.20	868.71
530.56	870.24
530.91	872.33
531.27	873.24
531.63	874.24
531.99	875.76
532.35	876.81
532.71	876.76
533.07	877.38
533.42	880.29
533.78	880.62
534.14	882.00
534.50	884.14
534.86	885.43
535.21	884.67
535.57	886.19
535.93	887.24
536.29	889.48
536.65	891.76
537.00	893.38
537.36	894.62
537.72	897.10
538.08	900.48
538.44	901.76
538.79	904.38
539.15	906.52
539.51	908.71
539.87	911.10
540.22	914.14
540.58	916.24
540.94	916.38
541.29	919.14
541.65	920.67
542.01	923.00
542.37	925.00
542.72	925.38
543.08	926.29
543.44	927.62
543.79	925.24
544.15	924.14
544.51	923.90
544.87	922.62
545.22	921.14
545.58	919.00
545.94	917.10
546.29	915.29
546.65	914.00
547.01	911.24
547.36	909.10
547.72	906.43
548.07	904.29
548.43	901.00
548.79	897.76
549.14	894.48
549.50	890.86
549.86	885.81
550.21	883.00
550.57	879.81
550.92	876.48
551.28	875.71
551.64	872.95
551.99	870.33
552.35	868.67
552.70	866.33
553.06	863.76
553.41	861.33
553.77	861.19
554.13	858.76
554.48	857.48
554.84	855.90
555.19	854.10
555.55	854.00
555.90	852.43
556.26	849.81
556.61	847.67
556.97	844.90
557.32	844.05
557.68	843.14
558.03	842.81
558.39	841.00
558.74	838.86
559.10	837.19
559.45	836.19
559.81	834.86
560.16	832.86
560.52	831.10
560.87	830.48
561.23	827.19
561.58	828.19
561.94	826.76
562.29	824.00
562.64	822.33
563.00	818.95
563.35	817.24
563.71	816.48
564.06	815.29
564.42	813.71
564.77	812.43
565.12	811.19
565.48	811.38
565.83	811.19
566.19	808.95
566.54	806.81
566.89	805.24
567.25	804.29
567.60	804.33
567.96	805.90
568.31	805.95
568.66	805.24
569.02	800.43
569.37	798.71
569.72	797.67
570.08	796.10
570.43	794.48
570.78	793.14
571.14	791.38
571.49	790.33
571.84	789.19
572.20	788.33
572.55	785.90
572.90	781.19
573.26	778.95
573.61	777.76
573.96	777.10
574.31	775.81
574.67	773.24
575.02	770.48
575.37	766.05
575.72	762.62
576.08	760.52
576.43	760.33
576.78	759.48
577.13	758.57
577.49	757.24
577.84	756.00
578.19	755.10
578.54	754.00
578.90	752.10
579.25	750.71
579.60	748.95
579.95	747.76
580.30	746.76
580.66	745.76
581.01	744.48
581.36	743.14
581.71	741.05
582.06	741.29
582.42	741.14
582.77	739.76
583.12	738.86
583.47	737.52
583.82	736.05
584.17	734.43
584.53	734.29
584.88	733.24
585.23	732.33
585.58	729.62
585.93	727.67
586.28	726.95
586.63	724.71
586.98	722.62
587.34	721.43
587.69	719.00
588.04	716.33
588.39	714.19
588.74	711.14
589.09	709.71
589.44	705.71
589.79	702.33
590.14	699.29
590.49	695.95
590.84	692.52
591.19	689.29
591.54	686.14
591.89	681.19
592.25	679.43
592.60	674.81
592.95	672.76
593.30	669.90
593.65	666.14
594.00	663.52
594.35	667.00
594.70	662.71
595.05	660.48
595.40	657.95
595.75	654.43
596.10	651.48
596.45	648.33
596.80	645.90
597.15	642.76
597.50	639.86
597.85	638.19
598.19	635.52
598.54	632.48
598.89	629.14
599.24	626.48
599.59	621.38
599.94	619.24
600.29	616.05
600.64	613.10
600.99	611.38
601.34	609.57
601.69	600.33
602.04	598.14
602.39	595.33
602.74	592.81
603.08	591.10
603.43	590.67
603.78	588.33
604.13	586.10
604.48	584.76
604.83	584.52
605.18	582.95
605.53	582.95
605.87	585.05
606.22	588.29
606.57	592.95
606.92	598.24
607.27	604.43
607.62	609.86
607.96	615.71
608.31	620.19
608.66	623.81
609.01	628.14
609.36	631.95
609.70	635.57
610.05	638.71
610.40	641.90
610.75	643.38
611.10	645.43
611.44	647.05
611.79	647.19
612.14	646.71
612.49	646.05
612.83	643.90
613.18	639.95
613.53	634.67
613.88	627.52
614.22	619.14
614.57	610.43
614.92	602.05
615.27	594.33
615.61	586.33
615.96	579.43
616.31	572.24
616.65	566.29
617.00	559.43
617.35	552.95
617.70	547.14
618.04	541.29
618.39	536.10
618.74	531.38
619.08	527.71
619.43	523.67
619.78	519.43
620.12	516.43
620.47	513.19
620.82	510.10
621.16	507.10
621.51	506.81
621.85	504.00
622.20	501.81
622.55	498.62
622.89	496.57
623.24	494.43
623.59	491.95
623.93	489.05
624.28	487.24
624.62	487.95
624.97	487.00
625.32	485.05
625.66	483.14
626.01	481.52
626.35	479.86
626.70	478.38
627.04	477.86
627.39	476.43
627.73	475.33
628.08	473.71
628.43	471.71
628.77	468.52
629.12	466.52
629.46	464.76
629.81	462.95
630.15	460.81
630.50	457.95
630.84	456.10
631.19	454.05
631.53	452.14
631.88	446.81
632.22	443.00
632.57	441.95
632.91	439.38
633.26	437.19
633.60	434.24
633.95	431.48
634.29	427.95
634.64	425.43
634.98	422.57
635.32	420.95
635.67	419.14
636.01	416.71
636.36	414.71
636.70	413.00
637.05	411.33
637.39	409.43
637.73	408.24
638.08	406.76
638.42	405.00
638.77	403.10
639.11	401.57
639.45	399.90
639.80	397.14
640.14	395.76
640.49	394.19
640.83	393.05
641.17	391.95
641.52	390.62
641.86	389.62
642.20	388.90
642.55	386.48
642.89	385.29
643.23	384.95
643.58	384.90
643.92	382.81
644.26	381.81
644.61	380.76
644.95	379.29
645.29	377.81
645.64	377.48
645.98	376.52
646.32	376.43
646.66	375.29
647.01	374.19
647.35	373.43
647.69	372.43
648.04	371.71
648.38	371.14
648.72	370.14
649.06	368.71
649.41	367.29
649.75	367.05
650.09	366.48
650.43	365.05
650.78	363.38
651.12	362.38
651.46	361.38
651.80	360.52
652.14	359.62
652.49	359.38
652.83	357.76
653.17	356.52
653.51	354.57
653.85	353.95
654.20	353.14
654.54	352.00
654.88	350.10
655.22	348.62
655.56	347.05
655.90	345.95
656.25	344.86
656.59	343.95
656.93	342.76
657.27	342.24
657.61	341.19
657.95	340.57
658.29	340.19
658.64	339.67
658.98	338.62
659.32	337.95
659.66	336.33
660.00	335.90
660.34	335.29
660.68	334.86
661.02	334.00
661.36	332.95
661.70	331.90
662.05	331.52
662.39	331.52
662.73	331.67
663.07	332.67
663.41	332.29
663.75	331.38
664.09	331.24
664.43	329.67
664.77	328.86
665.11	327.57
665.45	326.81
665.79	326.38
666.13	325.76
666.47	324.81
666.81	324.86
667.15	323.57
667.49	323.19
667.83	323.29
668.17	322.52
668.51	321.90
668.85	321.48
669.19	321.86
669.53	320.43
669.87	318.86
670.21	316.90
670.55	316.33
670.89	317.00
671.23	315.62
671.57	315.48
671.91	315.29
672.25	315.05
672.58	315.38
672.92	313.86
673.26	313.38
673.60	313.24
673.94	312.38
674.28	312.24
674.62	312.00
674.96	311.05
675.30	311.10
675.64	310.95
675.97	310.48
676.31	309.24
676.65	308.86
676.99	309.52
677.33	308.81
677.67	307.90
678.01	305.95
678.34	305.81
678.68	305.38
679.02	304.67
679.36	304.24
679.70	302.81
680.04	302.67
680.37	302.14
680.71	301.48
681.05	300.81
681.39	300.24
681.73	299.43
682.06	298.86
682.40	297.90
682.74	297.86
683.08	298.52
683.42	298.00
683.75	298.19
684.09	296.86
684.43	296.76
684.77	296.33
685.10	296.10
685.44	295.57
685.78	295.38
686.12	294.76
686.45	294.10
686.79	293.43
687.13	293.00
687.46	292.29
687.80	292.33
688.14	291.90
688.48	291.95
688.81	291.67
689.15	291.38
689.49	291.00
689.82	290.10
690.16	288.38
690.50	288.05
690.83	287.24
691.17	286.62
691.51	286.14
691.84	286.00
692.18	285.62
692.52	285.29
692.85	284.67
693.19	285.43
693.52	284.81
693.86	284.48
694.20	284.14
694.53	283.76
694.87	282.81
695.21	281.86
695.54	280.95
695.88	280.10
696.21	278.95
696.55	278.57
696.88	278.19
697.22	277.76
697.56	277.81
697.89	276.81
698.23	277.05
698.56	276.71
698.90	276.71
699.23	276.33
699.57	275.95
699.90	275.67
700.24	274.76
700.58	275.10
700.91	275.48
701.25	277.33
701.58	278.52
701.92	279.57
702.25	280.67
702.59	280.86
702.92	281.48
703.26	282.48
703.59	282.95
703.93	285.29
704.26	286.19
704.60	286.62
704.93	287.52
705.26	287.43
705.60	288.10
705.93	287.76
706.27	288.90
706.60	290.05
706.94	291.33
707.27	291.05
707.61	291.14
707.94	291.10
708.27	289.19
708.61	288.38
708.94	287.81
709.28	287.43
709.61	287.00
709.94	286.38
710.28	285.81
710.61	284.95
710.95	282.19
711.28	282.90
711.61	281.81
711.95	281.57
712.28	280.43
712.61	279.10
712.95	280.05
713.28	279.62
713.61	278.33
713.95	276.38
714.28	275.86
714.61	274.90
714.95	273.76
715.28	272.95
715.61	271.57
715.95	270.86
716.28	269.71
716.61	269.24
716.95	268.86
717.28	268.24
717.61	267.81
717.94	267.71
718.28	265.67
718.61	265.43
718.94	264.57
719.27	264.29
719.61	264.76
719.94	263.24
720.27	261.67
720.60	261.24
720.94	261.24
721.27	261.24
721.60	261.38
721.93	261.10
722.27	261.90
722.60	262.33
722.93	262.19
723.26	262.48
723.59	261.86
723.93	261.81
724.26	261.76
724.59	261.67
724.92	261.19
725.25	261.52
725.59	261.33
725.92	261.29
726.25	261.43
726.58	260.90
726.91	260.43
727.24	261.00
727.57	260.71
727.91	259.76
728.24	259.76
728.57	259.14
728.90	259.48
729.23	258.38
729.56	259.43
729.89	258.86
730.22	258.38
730.55	258.48
730.89	258.29
731.22	258.05
731.55	257.76
731.88	257.71
732.21	257.10
732.54	256.38
732.87	256.05
733.20	255.86
733.53	256.00
733.86	256.29
734.19	255.76
734.52	255.90
734.85	257.67
735.18	257.38
735.51	258.29
735.84	258.14
736.17	258.57
736.50	256.76
736.83	259.57
737.16	259.62
737.49	259.81
737.82	259.67
738.15	260.14
738.48	259.90
738.81	259.90
739.14	259.48
739.47	259.71
739.80	259.52
740.13	259.48
740.46	258.76
740.79	258.33
741.12	258.43
741.45	258.24
741.78	257.00
742.11	257.33
742.44	256.67
742.77	257.19
743.10	256.57
743.43	256.81
743.75	254.29
744.08	257.43
744.41	256.86
744.74	256.43
745.07	255.71
745.40	256.29
745.73	257.33
746.06	258.00
746.39	258.00
746.71	258.00
747.04	257.86
747.37	257.81
747.70	257.86
748.03	257.81
748.36	258.00
748.68	257.81
749.01	256.57
749.34	256.33
749.67	255.81
750.00	255.76
750.33	257.52
750.65	257.76
750.98	254.62
751.31	254.67
751.64	254.81
751.97	256.24
752.29	255.52
752.62	254.43
752.95	253.67
753.28	253.52
753.60	253.24
753.93	253.95
754.26	254.19
754.59	253.86
754.91	253.57
755.24	253.24
755.57	253.14
755.90	253.62
756.22	253.33
756.55	253.05
756.88	252.71
757.20	250.95
757.53	250.19
757.86	250.14
758.19	250.48
758.51	250.38
758.84	248.86
759.17	248.90
759.49	248.86
759.82	250.19
760.15	250.33
760.47	250.38
760.80	249.38
761.13	249.38
761.45	249.38
761.78	249.29
762.11	249.33
762.43	248.86
762.76	248.57
763.08	248.48
763.41	248.76
763.74	249.38
764.06	249.10
764.39	249.43
764.71	249.05
765.04	248.76
765.37	248.52
765.69	248.48
766.02	248.38
766.34	248.00
766.67	247.10
767.00	247.57
767.32	248.90
767.65	250.43
767.97	250.29
768.30	250.33
768.62	250.38
768.95	250.14
769.27	250.33
769.60	251.00
769.92	251.10
770.25	250.29
770.57	249.43
770.90	249.38
771.22	248.62
771.55	248.57
771.87	248.48
772.20	248.33
772.52	250.43
772.85	253.48
773.17	253.43
773.50	253.14
773.82	252.52
774.15	251.24
774.47	249.43
774.80	249.52
775.12	249.43
775.45	249.10
775.77	249.14
776.09	249.10
776.42	248.95
776.74	249.67
777.07	249.86
777.39	250.00
777.72	250.00
778.04	250.48
778.36	250.48
778.69	250.90
779.01	251.14
779.33	248.95
779.66	246.00
779.98	245.81
780.31	245.81
780.63	246.62
780.95	247.29
781.28	247.57
781.60	247.19
781.92	247.05
782.25	247.52
782.57	247.48
782.89	247.29
783.22	247.05
783.54	246.38
783.86	246.57
784.19	246.29
784.51	247.00
784.83	246.38
785.16	246.10
785.48	245.48
785.80	245.43
786.12	245.57
786.45	245.52
786.77	245.86
787.09	245.76
787.42	244.90
787.74	244.62
788.06	244.71
788.38	244.71
788.71	244.67
789.03	244.19
789.35	244.29
789.67	244.05
789.99	244.19
790.32	243.76
790.64	244.10
790.96	246.14
791.28	245.38
791.61	245.48
791.93	245.62
792.25	245.71
792.57	247.57
792.89	247.05
793.21	247.00
793.54	247.10
793.86	246.76
794.18	246.90
794.50	246.43
794.82	246.57
795.14	246.62
795.47	247.05
795.79	247.29
796.11	246.81
796.43	246.95
796.75	246.67
797.07	247.05
797.39	246.86
797.71	245.24
798.04	245.19
798.36	245.43
798.68	245.43
799.00	245.52
799.32	243.90
799.64	244.67
799.96	244.86
800.28	245.43
800.60	245.52
800.92	245.90
801.24	245.86
801.56	246.05
801.89	246.14
802.21	246.05
802.53	245.57
802.85	245.95
803.17	247.14
803.49	246.81
803.81	246.48
804.13	246.19
804.45	245.81
804.77	245.71
805.09	245.48
805.41	245.33
805.73	245.14
806.05	244.86
806.37	244.62
806.69	244.29
807.01	243.67
807.33	243.86
807.65	243.10
807.97	244.10
808.28	243.48
808.60	243.05
808.92	243.05
809.24	244.57
809.56	244.62
809.88	243.48
810.20	243.14
810.52	243.57
810.84	243.14
811.16	243.19
811.48	243.10
811.80	244.24
812.12	243.95
812.43	244.00
812.75	243.95
813.07	243.67
813.39	243.95
813.71	243.71
814.03	243.24
814.35	243.33
814.67	242.24
814.98	242.19
815.30	242.24
815.62	241.62
815.94	240.14
816.26	240.90
816.58	240.76
816.89	241.05
817.21	240.62
817.53	241.14
817.85	241.05
818.17	241.33
818.48	240.14
818.80	240.90
819.12	240.95
819.44	240.76
819.76	240.29
820.07	240.10
820.39	239.71
820.71	240.29
821.03	239.90
821.34	239.86
821.66	240.24
821.98	240.67
822.30	240.52
822.61	241.90
822.93	240.67
823.25	240.43
823.57	240.19
823.88	240.81
824.20	240.52
824.52	241.00
824.83	240.62
825.15	240.67
825.47	240.62
825.79	240.86
826.10	240.71
826.42	240.57
826.74	241.05
827.05	241.05
827.37	240.71
827.69	240.76
828.00	240.90
828.32	240.71
828.64	240.43
828.95	241.95
829.27	241.05
829.58	241.19
829.90	241.76
830.22	242.24
830.53	241.24
830.85	240.86
831.17	240.10
831.48	240.24
831.80	240.24
832.11	239.95
832.43	239.57
832.75	239.81
833.06	241.43
833.38	240.38
833.69	240.33
834.01	240.71
834.32	240.43
834.64	240.38
834.96	240.29
835.27	240.05
835.59	239.05
835.90	238.90
836.22	239.10
836.53	238.43
836.85	238.29
837.16	240.71
837.48	240.81
837.79	241.48
838.11	241.67
838.42	241.52
838.74	241.71
839.05	241.52
839.37	241.19
839.68	239.57
840.00	239.95
840.31	240.57
840.63	240.19
840.94	240.33
841.26	240.00
841.57	240.24
841.88	240.52
842.20	240.00
842.51	239.86
842.83	239.43
843.14	242.05
843.46	242.00
843.77	241.05
844.08	241.05
844.40	240.67
844.71	240.43
845.03	240.38
845.34	240.14
845.65	240.38
845.97	240.43
846.28	240.90
846.60	240.76
846.91	240.10
847.22	240.24
847.54	240.48
847.85	240.67
848.16	240.43
848.48	239.95
848.79	241.10
849.10	241.24
849.42	241.57
849.73	238.81
850.04	238.76
850.36	237.86
850.67	238.33
850.98	238.33
851.30	238.33
851.61	238.24
851.92	238.29
852.23	238.95
852.55	239.24
852.86	239.19
853.17	239.43
853.49	240.05
853.80	240.57
854.11	241.19
854.42	241.57
854.74	241.24
855.05	241.43
855.36	240.29
855.67	240.19
855.99	240.19
856.30	243.19
856.61	243.00
856.92	243.10
857.23	242.86
857.55	242.76
857.86	242.76
858.17	243.14
858.48	242.71
858.79	242.14
859.11	242.33
859.42	242.14
859.73	242.19
860.04	242.14
860.35	241.38
860.66	240.14
860.98	239.86
861.29	240.05
861.60	240.05
861.91	240.86
862.22	240.48
862.53	240.14
862.84	237.33
863.16	238.33
863.47	237.67
863.78	237.71
864.09	237.81
864.40	238.33
864.71	238.52
865.02	239.00
865.33	238.67
865.64	237.86
865.95	237.90
866.27	239.29
866.58	238.90
866.89	239.38
867.20	239.48
867.51	239.38
867.82	239.38
868.13	240.14
868.44	239.43
868.75	240.29
869.06	240.48
869.37	241.10
869.68	240.19
869.99	241.05
870.30	241.19
870.61	241.57
870.92	240.52
871.23	240.24
871.54	240.67
871.85	241.14
872.16	241.95
872.47	241.81
872.78	240.19
873.09	240.52
873.40	240.05
873.71	240.81
874.02	240.62
874.33	240.33
874.64	239.71
874.95	240.29
875.26	239.76
875.56	239.57
875.87	239.24
876.18	239.19
876.49	241.19
876.80	241.24
877.11	240.62
877.42	241.33
877.73	241.48
878.04	240.67
878.35	240.57
878.66	240.52
878.96	240.24
879.27	240.19
879.58	240.19
879.89	240.14
880.20	240.71
880.51	241.00
880.82	241.00
881.12	240.81
881.43	240.33
881.74	239.90
882.05	240.10
882.36	240.48
882.67	240.76
882.97	238.24
883.28	237.81
883.59	237.71
883.90	237.52
884.21	237.81
884.51	237.90
884.82	237.29
885.13	236.86
885.44	237.05
885.74	237.29
886.05	237.05
886.36	236.90
886.67	235.90
886.98	236.81
887.28	237.24
887.59	237.57
887.90	237.38
888.20	237.29
888.51	237.62
888.82	237.24
889.13	237.24
889.43	239.43
889.74	239.43
890.05	239.43
890.35	239.38
890.66	238.86
890.97	238.67
891.28	238.67
891.58	238.95
891.89	239.00
892.20	238.86
892.50	238.81
892.81	238.90
893.12	239.00
893.42	237.90
893.73	237.95
894.04	238.10
894.34	238.43
894.65	238.38
894.95	237.95
895.26	237.86
895.57	239.24
895.87	236.76
896.18	236.95
896.48	237.24
896.79	237.33
897.10	238.00
897.40	238.29
897.71	238.71
898.01	238.81
898.32	239.19
898.63	239.24
898.93	239.29
899.24	239.52
899.54	239.48
899.85	239.38
900.15	239.29
900.46	239.24
900.76	239.43
901.07	239.52
901.38	239.57
901.68	239.90
901.99	238.43
902.29	238.71
902.60	238.57
902.90	238.29
903.21	238.38
903.51	237.95
903.82	238.43
904.12	238.52
904.43	238.43
904.73	238.57
905.03	238.33
905.34	240.52
905.64	240.29
905.95	240.00
906.25	240.10
906.56	240.10
906.86	239.90
907.17	240.00
907.47	240.19
907.77	240.14
908.08	239.57
908.38	239.86
908.69	240.10
908.99	240.33
909.30	240.86
909.60	240.57
909.90	240.81
910.21	240.10
910.51	239.95
910.81	240.24
911.12	240.19
911.42	240.38
911.73	237.90
912.03	238.14
912.33	238.86
912.64	238.67
912.94	238.33
913.24	238.33
913.55	238.05
913.85	237.95
914.15	238.38
914.46	239.05
914.76	238.71
915.06	238.52
915.37	238.33
915.67	237.76
915.97	238.05
916.27	237.43
916.58	237.57
916.88	237.52
917.18	237.24
917.49	239.00
917.79	238.76
918.09	238.90
918.39	239.33
918.70	239.14
919.00	239.19
919.30	240.52
919.60	240.48
919.91	240.33
920.21	240.48
920.51	240.00
920.81	239.95
921.12	240.67
921.42	240.43
921.72	240.76
922.02	240.95
922.32	241.05
922.63	240.86
922.93	242.29
923.23	242.19
923.53	242.05
923.83	239.86
924.13	240.29
924.44	240.57
924.74	240.76
925.04	241.33
925.34	241.43
925.64	240.19
925.94	239.90
926.24	241.33
926.55	241.14
926.85	241.76
927.15	241.19
927.45	241.14
927.75	241.24
928.05	241.33
928.35	241.29
928.65	241.90
928.95	242.48
929.26	241.52
929.56	242.33
929.86	242.38
930.16	242.52
930.46	242.14
930.76	242.38
931.06	241.24
931.36	240.48
931.66	241.19
931.96	241.38
932.26	241.48
932.56	240.05
932.86	240.43
933.16	240.33
933.46	240.14
933.76	239.52
934.06	240.00
934.36	240.71
934.66	240.52
934.96	240.33
935.26	240.33
935.56	240.48
935.86	239.62
936.16	239.38
936.46	239.00
936.76	238.95
937.06	238.62
937.36	238.90
937.66	238.71
937.96	238.48
938.26	238.43
938.56	238.19
938.86	238.57
939.16	238.90
939.46	238.90
939.76	239.43
940.06	239.38
940.35	239.05
940.65	237.81
940.95	238.10
941.25	237.33
941.55	237.05
941.85	236.86
942.15	237.00
942.45	237.71
942.75	238.10
943.04	238.19
943.34	239.00
943.64	238.81
943.94	238.90
944.24	238.95
944.54	238.90
944.84	239.00
945.13	238.76
945.43	238.29
945.73	238.00
946.03	237.81
946.33	237.57
946.62	237.19
946.92	237.24
947.22	237.48
947.52	237.71
947.82	237.90
948.11	237.86
948.41	237.57
948.71	236.81
949.01	236.86
949.31	236.71
949.60	236.00
949.90	236.57
950.20	236.57
950.50	236.29
950.79	236.10
951.09	236.57
951.39	236.57
951.69	236.67
951.98	237.14
952.28	237.43
952.58	237.52
952.87	237.52
953.17	237.90
953.47	237.71
953.76	237.52
954.06	237.14
954.36	236.67
954.66	236.67
954.95	237.76
955.25	237.95
955.55	238.38
955.84	238.33
956.14	238.57
956.44	238.81
956.73	238.67
957.03	239.05
957.32	239.05
957.62	238.90
957.92	239.05
958.21	238.76
958.51	241.48
958.81	241.81
959.10	242.48
959.40	242.86
959.69	243.19
959.99	243.57
960.29	243.81
960.58	243.90
960.88	245.14
961.17	244.33
961.47	244.48
961.76	244.29
962.06	244.62
962.36	244.33
962.65	244.48
962.95	244.57
963.24	244.19
963.54	244.19
963.83	244.62
964.13	244.67
964.42	244.05
964.72	241.81
965.01	242.00
965.31	241.67
965.60	241.10
965.90	242.67
966.19	242.14
966.49	242.48
966.78	242.43
967.08	242.05
967.37	242.33
967.67	242.00
967.96	242.10
968.26	241.90
968.55	242.00
968.85	241.48
969.14	241.38
969.43	241.43
969.73	241.19
970.02	240.86
970.32	240.71
970.61	240.76
970.91	240.00
971.20	239.19
971.49	238.76
971.79	239.33
972.08	237.24
972.38	237.52
972.67	237.10
972.96	237.33
973.26	236.81
973.55	237.57
973.85	237.43
974.14	237.52
974.43	237.62
974.73	237.10
975.02	237.00
975.31	237.00
975.61	237.05
975.90	237.00
976.19	236.81
976.49	236.71
976.78	237.00
977.07	237.05
977.37	237.43
977.66	237.86
977.95	237.48
978.24	237.86
978.54	238.19
978.83	238.24
979.12	238.14
979.42	238.29
979.71	237.62
980.00	237.48
980.29	237.57
980.59	236.86
980.88	237.43
981.17	237.38
981.46	237.57
981.76	237.52
982.05	238.24
982.34	238.19
982.63	238.38
982.93	238.14
983.22	238.67
983.51	238.52
983.80	239.10
984.09	239.19
984.39	238.76
984.68	238.48
984.97	238.52
985.26	237.95
985.55	237.81
985.85	237.38
986.14	237.90
986.43	238.05
986.72	238.10
987.01	237.57
987.30	237.43
987.59	237.05
987.89	237.29
988.18	236.43
988.47	236.38
988.76	236.29
989.05	236.05
989.34	235.76
989.63	236.62
989.92	235.76
990.22	235.43
990.51	235.33
990.80	235.14
991.09	235.48
991.38	236.10
991.67	235.81
991.96	235.71
992.25	235.90
992.54	235.57
992.83	235.95
993.12	235.76
993.41	236.38
993.70	237.24
993.99	237.62
994.28	238.19
994.58	238.48
994.87	238.00
995.16	238.05
995.45	237.52
995.74	236.62
996.03	237.29
996.32	237.71
996.61	238.48
996.90	238.38
997.19	238.19
997.48	237.90
997.77	237.81
998.06	237.76
998.34	237.38
998.63	237.29
998.92	237.19
999.21	237.67
999.50	237.81
999.79	237.43
1000.08	237.05
1000.37	236.95
1000.66	236.76
1000.95	237.33
1001.24	237.71
1001.53	238.48
1001.82	238.43
1002.11	238.00
1002.40	238.19
1002.68	238.62
1002.97	240.62
1003.26	240.10
1003.55	240.10
1003.84	240.05
1004.13	241.05
1004.42	240.81
1004.71	240.90
1004.99	240.57
1005.28	240.48
1005.57	240.05
1005.86	239.62
1006.15	239.43
1006.44	239.19
1006.72	239.38
1007.01	238.86
1007.30	238.71
1007.59	238.24
1007.88	238.10
1008.17	237.90
1008.45	237.19
1008.74	236.00
1009.03	234.57
1009.32	234.90
1009.60	234.90
1009.89	235.00
1010.18	234.10
1010.47	234.05
1010.76	234.05
1011.04	234.19
1011.33	234.05
1011.62	234.19
1011.91	234.62
1012.19	234.71
1012.48	234.67
1012.77	234.57
1013.05	236.05
1013.34	236.14
1013.63	236.33
1013.92	236.81
1014.20	236.90
1014.49	237.14
1014.78	237.38
1015.06	236.90
1015.35	236.95
1015.64	237.29
1015.92	237.81
1016.21	237.67
1016.50	237.57
1016.78	237.52
1017.07	237.76
1017.36	238.00
1017.64	237.95
1017.93	237.62
1018.22	237.48
1018.50	237.38
1018.79	237.43
1019.08	236.05
1019.36	236.29
1019.65	235.90
1019.93	236.33
1020.22	236.67
1020.51	237.71
1020.79	237.52
1021.08	233.00
1021.36	234.00
1021.65	237.00
1021.94	233.00
1022.22	241.00
1022.51	232.00
1022.79	247.00
1023.08	241.00
1023.36	262.00
1023.65	230.00
>>>>>End Processed Spectral Data<<<<<
