SpectraSuite Data File
++++++++++++++++++++++++++++++++++++
Date: Wed Nov 07 18:30:57 EST 2012
User: group
Dark Spectrum Present: No
Reference Spectrum Present: No
Number of Sampled Component Spectra: 1
Spectrometers: USB2E7196
Integration Time (usec): 1000000 (USB2E7196)
Spectra Averaged: 1 (USB2E7196)
Boxcar Smoothing: 10 (USB2E7196)
Correct for Electrical Dark: No (USB2E7196)
Strobe/Lamp Enabled: No (USB2E7196)
Correct for Detector Non-linearity: No (USB2E7196)
Correct for Stray Light: No (USB2E7196)
Number of Pixels in Processed Spectrum: 2048
>>>>>Begin Processed Spectral Data<<<<<
339.09	0.00
339.48	214.00
339.86	215.00
340.24	222.00
340.63	223.00
341.01	259.00
341.39	227.00
341.78	228.00
342.16	236.00
342.54	233.00
342.93	220.71
343.31	231.57
343.69	232.52
344.07	233.43
344.46	234.33
344.84	234.86
345.22	233.67
345.60	234.19
345.99	235.00
346.37	235.00
346.75	235.00
347.13	235.05
347.52	235.33
347.90	236.14
348.28	236.19
348.66	236.62
349.05	235.71
349.43	236.38
349.81	236.86
350.19	237.71
350.57	237.71
350.96	237.90
351.34	238.33
351.72	238.43
352.10	238.52
352.48	238.29
352.87	238.24
353.25	238.57
353.63	238.38
354.01	238.05
354.39	238.29
354.77	238.62
355.15	239.10
355.54	239.14
355.92	238.76
356.30	238.86
356.68	240.81
357.06	241.48
357.44	241.14
357.82	241.24
358.20	241.00
358.58	241.10
358.97	241.05
359.35	241.52
359.73	242.05
360.11	241.95
360.49	241.95
360.87	242.05
361.25	242.19
361.63	243.14
362.01	243.29
362.39	243.24
362.77	243.29
363.15	243.57
363.53	243.38
363.91	243.52
364.29	243.43
364.67	241.05
365.05	240.81
365.43	241.14
365.81	241.38
366.19	242.76
366.57	243.62
366.95	243.71
367.33	242.90
367.71	242.86
368.09	243.29
368.47	243.52
368.85	243.43
369.23	244.05
369.61	243.14
369.99	243.86
370.37	244.24
370.75	245.38
371.13	244.62
371.51	244.38
371.89	244.38
372.27	244.57
372.65	244.52
373.03	244.86
373.41	244.38
373.78	244.19
374.16	242.90
374.54	242.43
374.92	242.48
375.30	242.95
375.68	242.43
376.06	242.19
376.44	241.67
376.82	241.86
377.19	241.38
377.57	241.38
377.95	240.33
378.33	240.14
378.71	238.86
379.09	239.33
379.47	239.48
379.84	239.19
380.22	238.71
380.60	238.57
380.98	238.29
381.36	238.33
381.73	237.90
382.11	238.19
382.49	237.71
382.87	237.38
383.25	237.29
383.62	240.24
384.00	240.14
384.38	240.67
384.76	241.19
385.13	242.19
385.51	242.19
385.89	242.05
386.27	241.90
386.64	242.10
387.02	241.86
387.40	241.67
387.78	242.00
388.15	242.43
388.53	242.38
388.91	242.43
389.29	242.67
389.66	243.05
390.04	242.48
390.42	243.43
390.79	243.48
391.17	243.62
391.55	240.95
391.92	241.00
392.30	241.24
392.68	240.57
393.05	240.24
393.43	240.71
393.81	240.76
394.18	240.33
394.56	240.24
394.94	240.76
395.31	240.62
395.69	241.38
396.06	241.62
396.44	241.76
396.82	241.81
397.19	243.05
397.57	243.00
397.95	243.24
398.32	242.14
398.70	242.29
399.07	242.95
399.45	243.00
399.82	243.24
400.20	243.19
400.58	243.57
400.95	242.90
401.33	243.14
401.70	245.43
402.08	245.81
402.45	246.00
402.83	246.86
403.20	247.43
403.58	247.00
403.95	247.62
404.33	248.33
404.71	248.29
405.08	249.38
405.46	249.81
405.83	250.71
406.21	251.38
406.58	251.67
406.96	251.57
407.33	252.14
407.70	252.95
408.08	255.05
408.45	255.86
408.83	256.86
409.20	256.90
409.58	255.95
409.95	257.29
410.33	258.43
410.70	258.33
411.08	259.76
411.45	261.05
411.82	261.95
412.20	263.81
412.57	267.10
412.95	266.43
413.32	268.24
413.69	269.52
414.07	271.00
414.44	273.05
414.82	275.33
415.19	277.57
415.56	279.90
415.94	281.38
416.31	284.52
416.68	287.19
417.06	290.76
417.43	294.62
417.81	298.00
418.18	301.86
418.55	306.00
418.93	310.19
419.30	314.33
419.67	319.19
420.04	323.57
420.42	327.24
420.79	334.71
421.16	340.67
421.54	347.90
421.91	354.05
422.28	360.71
422.66	367.24
423.03	375.19
423.40	382.05
423.77	388.90
424.15	395.95
424.52	403.62
424.89	412.57
425.26	420.43
425.64	428.24
426.01	436.48
426.38	445.33
426.75	455.10
427.13	464.00
427.50	473.67
427.87	483.29
428.24	493.57
428.61	502.29
428.99	513.76
429.36	524.19
429.73	536.43
430.10	548.71
430.47	561.57
430.85	573.10
431.22	587.48
431.59	605.24
431.96	619.33
432.33	635.48
432.70	650.81
433.08	667.43
433.45	683.48
433.82	699.29
434.19	716.67
434.56	732.67
434.93	748.62
435.30	763.86
435.68	781.29
436.05	797.24
436.42	813.62
436.79	828.57
437.16	845.48
437.53	861.81
437.90	878.19
438.27	893.76
438.64	910.10
439.01	924.29
439.38	934.38
439.75	946.86
440.13	960.38
440.50	972.86
440.87	985.00
441.24	995.14
441.61	1008.00
441.98	1016.43
442.35	1027.10
442.72	1039.00
443.09	1050.67
443.46	1056.43
443.83	1060.38
444.20	1063.57
444.57	1067.81
444.94	1068.67
445.31	1070.71
445.68	1074.81
446.05	1074.52
446.42	1071.33
446.79	1068.86
447.16	1064.67
447.53	1062.38
447.90	1054.43
448.27	1046.52
448.64	1035.86
449.01	1029.48
449.37	1016.52
449.74	1005.00
450.11	993.00
450.48	976.90
450.85	960.33
451.22	946.76
451.59	934.71
451.96	920.86
452.33	905.14
452.70	890.81
453.07	873.48
453.43	853.48
453.80	837.29
454.17	822.57
454.54	807.10
454.91	791.67
455.28	775.52
455.65	761.00
456.02	751.05
456.38	737.86
456.75	722.48
457.12	710.52
457.49	698.19
457.86	683.76
458.23	674.19
458.59	662.76
458.96	652.10
459.33	641.76
459.70	633.14
460.07	625.52
460.43	616.76
460.80	608.95
461.17	601.19
461.54	593.62
461.91	585.71
462.27	578.33
462.64	571.86
463.01	565.29
463.38	559.29
463.74	548.33
464.11	542.57
464.48	537.71
464.85	531.67
465.21	527.76
465.58	523.86
465.95	518.48
466.32	514.38
466.68	509.62
467.05	505.38
467.42	501.24
467.78	496.19
468.15	491.33
468.52	488.24
468.88	484.00
469.25	479.76
469.62	477.33
469.98	473.95
470.35	471.05
470.72	467.81
471.08	464.14
471.45	461.76
471.82	459.76
472.18	457.14
472.55	454.71
472.92	451.38
473.28	448.33
473.65	445.48
474.02	443.48
474.38	442.14
474.75	440.71
475.11	438.67
475.48	437.43
475.85	436.14
476.21	434.38
476.58	433.90
476.94	432.95
477.31	431.52
477.67	430.52
478.04	429.43
478.41	428.67
478.77	430.90
479.14	430.29
479.50	429.76
479.87	429.67
480.23	430.00
480.60	430.52
480.96	431.52
481.33	433.48
481.69	435.05
482.06	436.14
482.42	437.90
482.79	440.14
483.15	441.76
483.52	445.00
483.88	447.48
484.25	449.62
484.61	452.00
484.98	454.48
485.34	457.52
485.71	460.38
486.07	463.33
486.44	463.67
486.80	466.00
487.17	468.52
487.53	471.67
487.90	474.95
488.26	478.19
488.62	481.24
488.99	482.48
489.35	484.33
489.72	486.19
490.08	487.67
490.44	488.95
490.81	491.24
491.17	491.95
491.54	493.33
491.90	495.67
492.26	498.43
492.63	500.00
492.99	501.81
493.36	504.05
493.72	506.86
494.08	508.43
494.45	511.38
494.81	513.57
495.17	514.90
495.54	517.10
495.90	519.71
496.26	521.71
496.63	524.81
496.99	527.05
497.35	530.29
497.72	533.62
498.08	536.52
498.44	539.19
498.80	542.76
499.17	546.24
499.53	548.95
499.89	551.90
500.26	555.67
500.62	559.10
500.98	563.52
501.34	567.24
501.71	572.24
502.07	575.71
502.43	580.10
502.79	584.76
503.16	589.24
503.52	593.38
503.88	597.57
504.24	602.76
504.60	608.14
504.97	613.33
505.33	618.24
505.69	624.00
506.05	629.14
506.41	633.71
506.78	638.86
507.14	643.86
507.50	649.10
507.86	654.38
508.22	659.57
508.59	664.00
508.95	669.38
509.31	675.38
509.67	680.62
510.03	684.71
510.39	689.86
510.75	694.86
511.12	699.71
511.48	704.90
511.84	708.76
512.20	713.38
512.56	717.05
512.92	721.86
513.28	726.24
513.64	730.19
514.00	735.71
514.37	739.86
514.73	744.62
515.09	749.14
515.45	753.38
515.81	756.52
516.17	760.95
516.53	764.24
516.89	766.81
517.25	771.43
517.61	776.57
517.97	780.57
518.33	783.43
518.69	787.29
519.05	791.24
519.41	795.52
519.77	800.33
520.13	803.86
520.49	807.00
520.85	809.95
521.21	814.90
521.57	817.81
521.93	820.14
522.29	822.57
522.65	824.19
523.01	826.38
523.37	828.81
523.73	830.81
524.09	832.81
524.45	835.43
524.81	837.38
525.17	839.24
525.53	840.86
525.89	843.52
526.25	844.71
526.61	846.14
526.97	847.10
527.33	846.71
527.68	851.95
528.04	853.10
528.40	854.71
528.76	855.67
529.12	857.10
529.48	859.00
529.84	860.14
530.20	862.14
530.56	863.67
530.91	866.43
531.27	868.10
531.63	870.14
531.99	870.52
532.35	871.19
532.71	872.14
533.07	874.24
533.42	878.19
533.78	879.76
534.14	882.43
534.50	884.33
534.86	888.05
535.21	887.43
535.57	891.00
535.93	894.76
536.29	899.38
536.65	904.33
537.00	910.43
537.36	918.19
537.72	927.14
538.08	937.76
538.44	948.19
538.79	960.38
539.15	971.38
539.51	984.76
539.87	997.62
540.22	1010.71
540.58	1023.33
540.94	1034.90
541.29	1049.52
541.65	1061.29
542.01	1074.62
542.37	1085.33
542.72	1094.00
543.08	1099.86
543.44	1104.95
543.79	1107.57
544.15	1109.81
544.51	1110.76
544.87	1109.24
545.22	1105.67
545.58	1099.24
545.94	1092.05
546.29	1082.57
546.65	1073.33
547.01	1061.95
547.36	1052.10
547.72	1040.62
548.07	1028.81
548.43	1015.10
548.79	1000.57
549.14	987.76
549.50	974.86
549.86	961.95
550.21	951.48
550.57	942.71
550.92	933.52
551.28	925.48
551.64	917.62
551.99	910.33
552.35	903.05
552.70	896.43
553.06	891.29
553.41	886.14
553.77	882.48
554.13	878.10
554.48	875.00
554.84	870.05
555.19	866.00
555.55	863.67
555.90	860.24
556.26	856.00
556.61	852.19
556.97	847.57
557.32	844.43
557.68	842.05
558.03	838.86
558.39	836.48
558.74	833.52
559.10	831.29
559.45	828.86
559.81	826.76
560.16	824.52
560.52	823.05
560.87	820.81
561.23	818.14
561.58	818.19
561.94	815.90
562.29	813.43
562.64	811.62
563.00	808.33
563.35	807.14
563.71	806.57
564.06	805.05
564.42	804.14
564.77	802.24
565.12	799.71
565.48	801.29
565.83	799.33
566.19	798.38
566.54	796.43
566.89	795.00
567.25	794.38
567.60	794.48
567.96	794.43
568.31	795.05
568.66	794.95
569.02	791.29
569.37	789.67
569.72	789.19
570.08	788.43
570.43	786.81
570.78	784.62
571.14	783.38
571.49	782.05
571.84	780.62
572.20	780.52
572.55	779.86
572.90	775.76
573.26	775.52
573.61	774.38
573.96	773.81
574.31	773.71
574.67	772.33
575.02	770.71
575.37	768.24
575.72	766.71
576.08	765.86
576.43	765.52
576.78	765.38
577.13	765.05
577.49	764.52
577.84	764.71
578.19	765.62
578.54	765.62
578.90	766.29
579.25	766.52
579.60	766.10
579.95	765.33
580.30	765.48
580.66	765.33
581.01	764.95
581.36	763.86
581.71	762.29
582.06	763.19
582.42	762.95
582.77	762.14
583.12	760.95
583.47	758.90
583.82	758.81
584.17	758.24
584.53	758.19
584.88	756.52
585.23	754.95
585.58	752.00
585.93	750.14
586.28	746.86
586.63	745.38
586.98	743.14
587.34	741.10
587.69	738.43
588.04	734.81
588.39	731.90
588.74	728.57
589.09	726.57
589.44	721.52
589.79	717.86
590.14	714.05
590.49	709.05
590.84	704.81
591.19	700.29
591.54	696.05
591.89	690.19
592.25	688.29
592.60	684.05
592.95	681.10
593.30	677.00
593.65	674.00
594.00	668.95
594.35	671.33
594.70	667.24
595.05	663.76
595.40	660.67
595.75	657.43
596.10	654.52
596.45	651.05
596.80	648.19
597.15	644.14
597.50	640.81
597.85	639.19
598.19	636.81
598.54	633.95
598.89	631.00
599.24	628.90
599.59	624.57
599.94	621.81
600.29	618.86
600.64	617.00
600.99	614.81
601.34	612.29
601.69	603.24
602.04	600.76
602.39	598.33
602.74	596.24
603.08	594.14
603.43	593.24
603.78	590.62
604.13	588.67
604.48	587.86
604.83	587.24
605.18	587.10
605.53	588.57
605.87	592.67
606.22	598.71
606.57	606.71
606.92	615.52
607.27	624.95
607.62	634.62
607.96	643.62
608.31	651.29
608.66	659.00
609.01	665.52
609.36	671.95
609.70	677.95
610.05	683.24
610.40	688.19
610.75	691.19
611.10	695.33
611.44	698.05
611.79	699.81
612.14	700.33
612.49	699.57
612.83	696.90
613.18	691.71
613.53	683.52
613.88	673.24
614.22	661.62
614.57	650.57
614.92	638.19
615.27	626.19
615.61	615.57
615.96	605.86
616.31	597.00
616.65	589.38
617.00	580.33
617.35	572.52
617.70	564.29
618.04	557.67
618.39	550.19
618.74	544.71
619.08	539.48
619.43	534.67
619.78	530.43
620.12	526.57
620.47	523.33
620.82	519.71
621.16	516.38
621.51	515.48
621.85	511.95
622.20	509.71
622.55	506.57
622.89	503.95
623.24	501.19
623.59	497.71
623.93	494.48
624.28	492.67
624.62	492.05
624.97	491.33
625.32	488.71
625.66	486.95
626.01	484.38
626.35	482.29
626.70	481.00
627.04	479.48
627.39	478.00
627.73	476.81
628.08	475.24
628.43	473.14
628.77	469.10
629.12	466.57
629.46	464.48
629.81	462.76
630.15	460.38
630.50	458.19
630.84	456.14
631.19	453.33
631.53	450.71
631.88	445.95
632.22	441.95
632.57	440.24
632.91	437.14
633.26	435.14
633.60	432.71
633.95	429.57
634.29	426.00
634.64	422.86
634.98	419.00
635.32	417.57
635.67	415.67
636.01	413.76
636.36	411.71
636.70	409.90
637.05	407.29
637.39	405.43
637.73	403.62
638.08	402.71
638.42	401.00
638.77	399.52
639.11	397.76
639.45	396.38
639.80	394.19
640.14	393.38
640.49	391.67
640.83	389.81
641.17	388.71
641.52	386.95
641.86	385.71
642.20	385.43
642.55	383.29
642.89	382.29
643.23	381.52
643.58	381.76
643.92	379.62
644.26	378.90
644.61	378.24
644.95	377.00
645.29	375.71
645.64	375.86
645.98	374.71
646.32	374.95
646.66	373.71
647.01	373.05
647.35	372.43
647.69	372.57
648.04	371.90
648.38	371.14
648.72	370.67
649.06	369.62
649.41	368.00
649.75	366.90
650.09	365.95
650.43	364.71
650.78	362.57
651.12	362.00
651.46	361.00
651.80	359.71
652.14	358.57
652.49	358.10
652.83	356.00
653.17	354.86
653.51	352.71
653.85	351.90
654.20	351.29
654.54	349.86
654.88	347.29
655.22	345.62
655.56	343.95
655.90	342.86
656.25	342.19
656.59	341.33
656.93	341.10
657.27	340.48
657.61	339.52
657.95	339.24
658.29	338.29
658.64	338.33
658.98	337.24
659.32	336.67
659.66	336.00
660.00	335.86
660.34	335.19
660.68	334.52
661.02	333.81
661.36	332.19
661.70	331.19
662.05	331.14
662.39	331.62
662.73	331.90
663.07	332.62
663.41	331.90
663.75	330.48
664.09	329.43
664.43	328.29
664.77	327.71
665.11	326.67
665.45	325.95
665.79	325.29
666.13	324.67
666.47	323.86
666.81	322.67
667.15	321.57
667.49	320.71
667.83	321.24
668.17	320.29
668.51	319.86
668.85	319.67
669.19	320.10
669.53	318.76
669.87	317.29
670.21	315.62
670.55	314.86
670.89	316.05
671.23	315.52
671.57	315.00
671.91	314.57
672.25	314.43
672.58	315.19
672.92	313.71
673.26	313.57
673.60	313.05
673.94	312.38
674.28	312.05
674.62	312.00
674.96	310.95
675.30	310.95
675.64	310.67
675.97	309.95
676.31	308.43
676.65	308.14
676.99	308.76
677.33	307.81
677.67	307.19
678.01	305.43
678.34	304.86
678.68	305.43
679.02	304.57
679.36	303.24
679.70	301.71
680.04	301.14
680.37	300.48
680.71	299.90
681.05	299.57
681.39	298.95
681.73	298.10
682.06	297.24
682.40	296.76
682.74	296.62
683.08	297.14
683.42	296.33
683.75	296.05
684.09	294.90
684.43	294.76
684.77	294.48
685.10	294.05
685.44	293.86
685.78	292.52
686.12	292.14
686.45	291.86
686.79	291.29
687.13	291.33
687.46	290.71
687.80	290.95
688.14	290.81
688.48	290.86
688.81	290.95
689.15	291.24
689.49	290.43
689.82	290.10
690.16	288.57
690.50	288.29
690.83	287.33
691.17	286.43
691.51	286.14
691.84	286.24
692.18	285.95
692.52	285.38
692.85	285.33
693.19	285.95
693.52	285.90
693.86	285.38
694.20	285.24
694.53	285.14
694.87	284.48
695.21	283.48
695.54	282.57
695.88	281.48
696.21	280.48
696.55	279.95
696.88	279.52
697.22	278.76
697.56	278.76
697.89	278.57
698.23	278.57
698.56	277.90
698.90	277.29
699.23	276.67
699.57	276.33
699.90	275.52
700.24	274.48
700.58	274.10
700.91	274.48
701.25	276.24
701.58	277.00
701.92	277.86
702.25	278.71
702.59	279.19
702.92	280.14
703.26	280.81
703.59	281.81
703.93	283.86
704.26	285.19
704.60	285.81
704.93	286.48
705.26	287.05
705.60	288.38
705.93	288.52
706.27	290.14
706.60	291.00
706.94	292.52
707.27	292.71
707.61	293.48
707.94	293.67
708.27	291.95
708.61	291.19
708.94	290.86
709.28	290.19
709.61	289.33
709.94	288.71
710.28	287.90
710.61	287.05
710.95	283.86
711.28	284.67
711.61	283.62
711.95	282.95
712.28	281.71
712.61	280.38
712.95	280.95
713.28	280.57
713.61	279.33
713.95	277.67
714.28	277.00
714.61	275.43
714.95	274.19
715.28	273.10
715.61	272.19
715.95	271.33
716.28	270.19
716.61	270.05
716.95	269.33
717.28	268.43
717.61	267.71
717.94	267.76
718.28	265.14
718.61	264.62
718.94	263.62
719.27	263.33
719.61	263.10
719.94	262.10
720.27	260.52
720.60	260.52
720.94	260.05
721.27	259.86
721.60	260.29
721.93	260.24
722.27	260.76
722.60	260.86
722.93	260.19
723.26	260.43
723.59	260.05
723.93	259.76
724.26	259.95
724.59	260.05
724.92	259.86
725.25	260.81
725.59	260.76
725.92	261.10
726.25	260.95
726.58	260.95
726.91	260.62
727.24	260.86
727.57	260.48
727.91	260.19
728.24	259.81
728.57	259.43
728.90	259.33
729.23	258.38
729.56	259.10
729.89	258.90
730.22	258.67
730.55	258.24
730.89	258.24
731.22	258.05
731.55	257.95
731.88	258.10
732.21	257.10
732.54	256.67
732.87	256.43
733.20	256.48
733.53	256.14
733.86	256.33
734.19	256.00
734.52	256.10
734.85	257.81
735.18	257.71
735.51	258.43
735.84	258.62
736.17	259.10
736.50	257.90
736.83	260.95
737.16	260.71
737.49	260.71
737.82	260.67
738.15	261.00
738.48	260.52
738.81	260.33
739.14	260.67
739.47	260.38
739.80	260.38
740.13	260.43
740.46	260.19
740.79	259.33
741.12	259.10
741.45	258.57
741.78	257.29
742.11	257.67
742.44	256.86
742.77	257.00
743.10	256.71
743.43	256.71
743.75	254.10
744.08	257.29
744.41	257.29
744.74	257.00
745.07	256.52
745.40	257.19
745.73	258.05
746.06	257.38
746.39	258.05
746.71	257.62
747.04	257.48
747.37	257.14
747.70	257.90
748.03	257.86
748.36	257.95
748.68	257.43
749.01	256.71
749.34	256.76
749.67	256.33
750.00	256.76
750.33	258.24
750.65	258.33
750.98	255.19
751.31	254.90
751.64	254.71
751.97	255.86
752.29	255.29
752.62	253.86
752.95	253.76
753.28	253.19
753.60	253.38
753.93	253.62
754.26	253.57
754.59	252.62
754.91	252.29
755.24	252.33
755.57	252.43
755.90	252.19
756.22	251.67
756.55	251.62
756.88	250.48
757.20	248.86
757.53	248.10
757.86	248.05
758.19	248.57
758.51	248.81
758.84	247.43
759.17	247.19
759.49	247.71
759.82	248.95
760.15	249.10
760.47	248.95
760.80	248.10
761.13	249.00
761.45	248.81
761.78	248.90
762.11	249.00
762.43	248.62
762.76	248.81
763.08	249.19
763.41	248.90
763.74	249.29
764.06	249.38
764.39	249.29
764.71	249.24
765.04	248.67
765.37	248.33
765.69	248.05
766.02	248.05
766.34	247.24
766.67	246.29
767.00	246.62
767.32	247.86
767.65	249.86
767.97	249.29
768.30	249.67
768.62	249.71
768.95	248.95
769.27	248.95
769.60	249.43
769.92	248.90
770.25	248.86
770.57	248.38
770.90	248.33
771.22	248.19
771.55	248.24
771.87	248.52
772.20	248.33
772.52	250.62
772.85	253.48
773.17	253.86
773.50	253.57
773.82	253.24
774.15	251.76
774.47	249.86
774.80	249.81
775.12	249.81
775.45	249.67
775.77	250.05
776.09	250.19
776.42	249.81
776.74	250.62
777.07	250.38
777.39	250.38
777.72	250.10
778.04	250.24
778.36	250.14
778.69	249.90
779.01	250.52
779.33	248.29
779.66	245.43
779.98	245.14
780.31	245.24
780.63	246.05
780.95	246.52
781.28	246.52
781.60	245.86
781.92	245.57
782.25	245.33
782.57	245.29
782.89	245.00
783.22	244.95
783.54	244.48
783.86	244.71
784.19	244.52
784.51	245.10
784.83	244.62
785.16	244.33
785.48	244.52
785.80	244.05
786.12	244.33
786.45	244.48
786.77	244.90
787.09	244.90
787.42	244.19
787.74	244.10
788.06	244.10
788.38	244.14
788.71	244.05
789.03	244.14
789.35	244.43
789.67	244.19
789.99	244.05
790.32	243.76
790.64	244.05
790.96	246.29
791.28	245.57
791.61	245.33
791.93	245.57
792.25	245.48
792.57	247.52
792.89	246.76
793.21	246.57
793.54	246.19
793.86	245.90
794.18	245.76
794.50	245.48
794.82	245.43
795.14	245.86
795.47	246.24
795.79	246.57
796.11	246.05
796.43	245.95
796.75	246.24
797.07	246.14
797.39	246.00
797.71	244.33
798.04	244.57
798.36	245.33
798.68	245.19
799.00	245.29
799.32	243.71
799.64	244.43
799.96	244.52
800.28	244.86
800.60	244.71
800.92	244.86
801.24	244.71
801.56	244.95
801.89	244.90
802.21	244.81
802.53	244.10
802.85	244.57
803.17	245.86
803.49	245.52
803.81	245.43
804.13	244.95
804.45	244.52
804.77	244.67
805.09	244.29
805.41	243.90
805.73	243.57
806.05	242.95
806.37	243.00
806.69	242.71
807.01	242.67
807.33	243.05
807.65	242.48
807.97	243.95
808.28	243.71
808.60	243.52
808.92	243.33
809.24	244.95
809.56	244.76
809.88	244.14
810.20	244.48
810.52	245.48
810.84	245.43
811.16	244.95
811.48	244.81
811.80	245.62
812.12	245.67
812.43	245.95
812.75	246.10
813.07	245.67
813.39	246.00
813.71	245.57
814.03	245.14
814.35	245.14
814.67	244.10
814.98	244.19
815.30	243.95
815.62	243.67
815.94	242.24
816.26	243.24
816.58	242.76
816.89	242.71
817.21	241.81
817.53	242.00
817.85	242.48
818.17	242.38
818.48	241.52
818.80	242.33
819.12	242.05
819.44	241.62
819.76	241.81
820.07	241.81
820.39	242.19
820.71	242.19
821.03	242.19
821.34	241.76
821.66	242.10
821.98	242.38
822.30	242.19
822.61	243.76
822.93	242.43
823.25	242.10
823.57	241.76
823.88	242.10
824.20	242.00
824.52	242.62
824.83	242.43
825.15	242.24
825.47	241.95
825.79	242.19
826.10	242.24
826.42	241.81
826.74	242.00
827.05	241.57
827.37	241.86
827.69	241.38
828.00	241.62
828.32	241.48
828.64	241.29
828.95	242.81
829.27	241.95
829.58	242.14
829.90	242.38
830.22	242.71
830.53	242.19
830.85	241.90
831.17	240.90
831.48	240.90
831.80	241.00
832.11	240.52
832.43	239.90
832.75	240.05
833.06	241.76
833.38	240.95
833.69	241.05
834.01	240.86
834.32	241.43
834.64	240.90
834.96	240.95
835.27	241.05
835.59	240.33
835.90	239.90
836.22	239.62
836.53	239.43
836.85	238.90
837.16	241.38
837.48	241.48
837.79	242.62
838.11	242.81
838.42	242.57
838.74	242.90
839.05	243.05
839.37	243.05
839.68	241.57
840.00	241.52
840.31	241.76
840.63	241.71
840.94	241.14
841.26	241.38
841.57	241.10
841.88	241.14
842.20	240.67
842.51	240.48
842.83	240.81
843.14	242.90
843.46	242.90
843.77	241.43
844.08	241.52
844.40	240.43
844.71	240.19
845.03	240.48
845.34	240.43
845.65	240.14
845.97	240.14
846.28	240.33
846.60	240.57
846.91	240.14
847.22	240.38
847.54	241.29
847.85	241.43
848.16	241.43
848.48	241.48
848.79	242.38
849.10	242.48
849.42	242.67
849.73	240.52
850.04	240.71
850.36	240.10
850.67	240.57
850.98	240.76
851.30	241.19
851.61	241.14
851.92	241.19
852.23	242.24
852.55	242.38
852.86	242.29
853.17	242.62
853.49	243.14
853.80	243.90
854.11	244.00
854.42	244.24
854.74	243.90
855.05	243.81
855.36	243.00
855.67	243.10
855.99	242.95
856.30	245.90
856.61	246.10
856.92	246.05
857.23	246.10
857.55	245.90
857.86	245.76
858.17	246.05
858.48	245.90
858.79	245.52
859.11	245.67
859.42	245.67
859.73	245.10
860.04	245.10
860.35	243.95
860.66	243.33
860.98	243.24
861.29	243.95
861.60	243.62
861.91	243.62
862.22	243.29
862.53	243.10
862.84	239.90
863.16	240.67
863.47	240.48
863.78	240.00
864.09	240.48
864.40	240.29
864.71	240.19
865.02	240.48
865.33	240.19
865.64	239.86
865.95	239.76
866.27	241.67
866.58	241.57
866.89	241.76
867.20	241.43
867.51	241.10
867.82	240.71
868.13	241.52
868.44	240.86
868.75	241.52
869.06	241.52
869.37	241.86
869.68	240.71
869.99	241.10
870.30	241.00
870.61	240.90
870.92	240.48
871.23	240.38
871.54	240.43
871.85	240.86
872.16	241.29
872.47	241.14
872.78	239.81
873.09	239.81
873.40	240.05
873.71	240.29
874.02	240.43
874.33	240.24
874.64	239.71
874.95	240.71
875.26	240.10
875.56	240.10
875.87	240.14
876.18	239.95
876.49	242.24
876.80	242.19
877.11	241.57
877.42	241.81
877.73	241.76
878.04	241.19
878.35	241.24
878.66	241.10
878.96	240.67
879.27	240.43
879.58	240.38
879.89	239.81
880.20	240.71
880.51	240.38
880.82	240.43
881.12	240.76
881.43	240.24
881.74	239.67
882.05	239.38
882.36	239.67
882.67	240.00
882.97	237.29
883.28	237.24
883.59	237.52
883.90	237.95
884.21	238.24
884.51	238.38
884.82	238.05
885.13	238.05
885.44	238.33
885.74	238.24
886.05	238.05
886.36	238.38
886.67	237.38
886.98	238.67
887.28	238.76
887.59	238.48
887.90	238.76
888.20	239.14
888.51	239.52
888.82	238.90
889.13	239.19
889.43	241.29
889.74	241.19
890.05	241.29
890.35	241.14
890.66	240.67
890.97	240.43
891.28	240.05
891.58	240.24
891.89	240.19
892.20	239.95
892.50	239.71
892.81	239.43
893.12	239.24
893.42	238.33
893.73	238.43
894.04	238.38
894.34	238.10
894.65	237.95
894.95	237.90
895.26	238.52
895.57	239.48
895.87	237.19
896.18	237.86
896.48	237.90
896.79	237.71
897.10	238.43
897.40	238.76
897.71	239.29
898.01	238.81
898.32	239.10
898.63	238.95
898.93	239.14
899.24	239.29
899.54	239.67
899.85	239.43
900.15	239.33
900.46	239.67
900.76	239.90
901.07	239.76
901.38	239.71
901.68	239.48
901.99	238.10
902.29	238.38
902.60	237.90
902.90	238.00
903.21	237.81
903.51	237.52
903.82	238.19
904.12	238.05
904.43	238.43
904.73	238.43
905.03	238.57
905.34	240.90
905.64	240.67
905.95	240.43
906.25	240.43
906.56	240.19
906.86	239.52
907.17	239.48
907.47	240.05
907.77	239.67
908.08	239.62
908.38	240.10
908.69	240.00
908.99	240.38
909.30	240.00
909.60	240.24
909.90	240.33
910.21	239.38
910.51	238.71
910.81	239.00
911.12	239.29
911.42	239.62
911.73	237.14
912.03	237.52
912.33	237.86
912.64	237.62
912.94	237.71
913.24	237.67
913.55	237.38
913.85	237.05
914.15	237.48
914.46	237.48
914.76	237.24
915.06	237.10
915.37	236.57
915.67	236.52
915.97	236.33
916.27	235.71
916.58	235.86
916.88	236.14
917.18	235.86
917.49	237.33
917.79	237.24
918.09	237.62
918.39	238.57
918.70	238.52
919.00	238.86
919.30	239.57
919.60	239.67
919.91	239.24
920.21	239.14
920.51	238.67
920.81	238.95
921.12	239.00
921.42	239.05
921.72	239.71
922.02	239.86
922.32	240.38
922.63	240.62
922.93	241.71
923.23	241.95
923.53	241.57
923.83	240.14
924.13	240.29
924.44	240.38
924.74	240.14
925.04	240.81
925.34	240.81
925.64	240.10
925.94	240.05
926.24	242.10
926.55	241.62
926.85	242.24
927.15	242.19
927.45	242.29
927.75	242.24
928.05	241.81
928.35	241.90
928.65	242.48
928.95	242.81
929.26	241.62
929.56	242.05
929.86	242.38
930.16	241.76
930.46	241.62
930.76	241.57
931.06	240.67
931.36	239.81
931.66	240.05
931.96	240.57
932.26	240.90
932.56	239.62
932.86	240.14
933.16	240.05
933.46	239.81
933.76	239.48
934.06	240.29
934.36	241.48
934.66	241.05
934.96	240.62
935.26	240.76
935.56	241.52
935.86	240.90
936.16	240.57
936.46	241.00
936.76	240.86
937.06	240.24
937.36	240.24
937.66	240.33
937.96	240.05
938.26	239.10
938.56	238.95
938.86	239.05
939.16	239.67
939.46	239.81
939.76	239.67
940.06	239.76
940.35	239.10
940.65	237.86
940.95	238.14
941.25	237.33
941.55	236.95
941.85	236.81
942.15	237.29
942.45	237.76
942.75	237.38
943.04	237.71
943.34	238.52
943.64	238.43
943.94	238.29
944.24	238.19
944.54	238.57
944.84	238.48
945.13	238.05
945.43	237.52
945.73	237.48
946.03	237.29
946.33	237.05
946.62	236.90
946.92	236.81
947.22	237.00
947.52	237.19
947.82	237.48
948.11	237.14
948.41	236.67
948.71	236.19
949.01	236.29
949.31	236.10
949.60	235.71
949.90	236.19
950.20	236.14
950.50	236.29
950.79	236.29
951.09	236.81
951.39	237.10
951.69	237.00
951.98	237.81
952.28	238.14
952.58	237.86
952.87	237.86
953.17	238.05
953.47	237.62
953.76	237.62
954.06	237.05
954.36	236.52
954.66	236.43
954.95	237.14
955.25	237.24
955.55	237.38
955.84	236.86
956.14	237.43
956.44	237.76
956.73	237.43
957.03	237.57
957.32	237.10
957.62	236.95
957.92	237.57
958.21	236.86
958.51	239.67
958.81	240.52
959.10	241.10
959.40	241.48
959.69	241.90
959.99	242.48
960.29	242.48
960.58	242.48
960.88	243.62
961.17	242.86
961.47	243.24
961.76	242.76
962.06	243.52
962.36	243.05
962.65	242.67
962.95	242.86
963.24	242.81
963.54	243.33
963.83	243.14
964.13	242.81
964.42	242.29
964.72	240.24
965.01	240.19
965.31	239.76
965.60	239.48
965.90	241.00
966.19	240.29
966.49	240.62
966.78	240.71
967.08	240.29
967.37	240.57
967.67	240.19
967.96	240.62
968.26	240.48
968.55	240.76
968.85	241.00
969.14	241.14
969.43	240.90
969.73	240.43
970.02	240.62
970.32	240.48
970.61	240.43
970.91	239.38
971.20	238.81
971.49	238.62
971.79	238.95
972.08	237.24
972.38	237.62
972.67	237.52
972.96	237.67
973.26	237.29
973.55	237.95
973.85	237.81
974.14	237.81
974.43	237.76
974.73	236.90
975.02	236.57
975.31	236.76
975.61	236.81
975.90	236.76
976.19	236.24
976.49	236.71
976.78	236.86
977.07	237.29
977.37	237.33
977.66	237.67
977.95	237.33
978.24	237.43
978.54	237.67
978.83	237.33
979.12	237.71
979.42	237.86
979.71	237.52
980.00	237.43
980.29	237.76
980.59	237.43
980.88	238.48
981.17	238.57
981.46	238.33
981.76	238.86
982.05	239.43
982.34	239.90
982.63	239.90
982.93	239.95
983.22	240.52
983.51	241.05
983.80	241.52
984.09	241.71
984.39	241.62
984.68	241.33
984.97	241.62
985.26	241.14
985.55	241.19
985.85	240.71
986.14	241.43
986.43	241.48
986.72	241.33
987.01	240.62
987.30	240.71
987.59	240.67
987.89	240.38
988.18	239.90
988.47	239.81
988.76	239.43
989.05	239.14
989.34	238.67
989.63	239.33
989.92	238.76
990.22	238.43
990.51	238.24
990.80	238.10
991.09	238.24
991.38	238.67
991.67	238.52
991.96	238.29
992.25	238.05
992.54	237.57
992.83	237.81
993.12	237.76
993.41	237.95
993.70	239.14
993.99	239.67
994.28	240.00
994.58	240.05
994.87	240.00
995.16	240.43
995.45	240.24
995.74	239.05
996.03	239.43
996.32	239.81
996.61	240.57
996.90	240.05
997.19	240.29
997.48	240.24
997.77	239.90
998.06	240.24
998.34	240.10
998.63	240.19
998.92	240.19
999.21	240.38
999.50	240.38
999.79	239.29
1000.08	238.95
1000.37	238.90
1000.66	238.76
1000.95	239.24
1001.24	239.00
1001.53	239.43
1001.82	239.48
1002.11	239.00
1002.40	239.24
1002.68	239.48
1002.97	241.81
1003.26	241.33
1003.55	240.95
1003.84	241.19
1004.13	241.95
1004.42	241.86
1004.71	241.67
1004.99	241.90
1005.28	242.05
1005.57	242.00
1005.86	241.48
1006.15	241.14
1006.44	240.71
1006.72	241.00
1007.01	240.48
1007.30	240.62
1007.59	240.48
1007.88	240.48
1008.17	240.52
1008.45	239.86
1008.74	239.10
1009.03	237.76
1009.32	237.81
1009.60	237.81
1009.89	237.57
1010.18	236.43
1010.47	236.05
1010.76	236.05
1011.04	235.67
1011.33	235.62
1011.62	235.76
1011.91	236.10
1012.19	236.05
1012.48	236.14
1012.77	235.90
1013.05	237.00
1013.34	236.76
1013.63	236.52
1013.92	236.90
1014.20	236.76
1014.49	237.24
1014.78	237.48
1015.06	236.95
1015.35	236.86
1015.64	237.19
1015.92	237.95
1016.21	238.33
1016.50	238.33
1016.78	238.86
1017.07	238.95
1017.36	239.00
1017.64	238.48
1017.93	239.14
1018.22	238.86
1018.50	238.86
1018.79	238.86
1019.08	237.86
1019.36	238.24
1019.65	237.67
1019.93	238.00
1020.22	238.00
1020.51	238.76
1020.79	238.48
1021.08	229.00
1021.36	235.00
1021.65	235.00
1021.94	238.00
1022.22	241.00
1022.51	226.00
1022.79	250.00
1023.08	233.00
1023.36	262.00
1023.65	233.00
>>>>>End Processed Spectral Data<<<<<
