SpectraSuite Data File
++++++++++++++++++++++++++++++++++++
Date: Wed Nov 07 18:33:09 EST 2012
User: group
Dark Spectrum Present: No
Reference Spectrum Present: No
Number of Sampled Component Spectra: 1
Spectrometers: USB2E7196
Integration Time (usec): 1000000 (USB2E7196)
Spectra Averaged: 1 (USB2E7196)
Boxcar Smoothing: 10 (USB2E7196)
Correct for Electrical Dark: No (USB2E7196)
Strobe/Lamp Enabled: No (USB2E7196)
Correct for Detector Non-linearity: No (USB2E7196)
Correct for Stray Light: No (USB2E7196)
Number of Pixels in Processed Spectrum: 2048
>>>>>Begin Processed Spectral Data<<<<<
339.09	0.00
339.48	221.00
339.86	221.00
340.24	225.00
340.63	224.00
341.01	266.00
341.39	231.00
341.78	233.00
342.16	242.00
342.54	231.00
342.93	224.71
343.31	235.81
343.69	236.33
344.07	236.86
344.46	237.52
344.84	238.19
345.22	236.81
345.60	237.33
345.99	237.67
346.37	237.24
346.75	237.38
347.13	237.19
347.52	237.43
347.90	237.90
348.28	238.10
348.66	238.81
349.05	238.00
349.43	237.95
349.81	237.90
350.19	238.00
350.57	238.14
350.96	238.48
351.34	238.52
351.72	238.38
352.10	238.52
352.48	238.43
352.87	238.10
353.25	238.10
353.63	237.52
354.01	237.05
354.39	236.81
354.77	236.86
355.15	237.43
355.54	237.14
355.92	236.67
356.30	236.48
356.68	238.19
357.06	238.24
357.44	237.71
357.82	237.52
358.20	237.71
358.58	237.29
358.97	237.24
359.35	237.90
359.73	238.38
360.11	238.57
360.49	238.57
360.87	238.48
361.25	238.67
361.63	239.57
362.01	239.67
362.39	240.00
362.77	240.05
363.15	240.10
363.53	239.95
363.91	240.29
364.29	240.33
364.67	237.81
365.05	238.00
365.43	238.62
365.81	239.05
366.19	239.81
366.57	240.81
366.95	240.57
367.33	239.90
367.71	240.00
368.09	240.29
368.47	239.90
368.85	240.00
369.23	240.19
369.61	239.57
369.99	240.57
370.37	241.05
370.75	242.24
371.13	241.48
371.51	241.24
371.89	241.14
372.27	240.95
372.65	241.10
373.03	241.29
373.41	240.57
373.78	240.48
374.16	239.43
374.54	238.62
374.92	238.57
375.30	238.52
375.68	237.76
376.06	237.57
376.44	237.86
376.82	237.95
377.19	238.00
377.57	237.81
377.95	236.90
378.33	236.62
378.71	235.19
379.09	236.05
379.47	236.43
379.84	236.48
380.22	236.48
380.60	236.48
380.98	236.43
381.36	236.71
381.73	236.33
382.11	236.81
382.49	237.24
382.87	237.24
383.25	237.33
383.62	240.81
384.00	240.57
384.38	240.86
384.76	241.62
385.13	242.57
385.51	242.67
385.89	242.52
386.27	242.48
386.64	242.95
387.02	242.43
387.40	242.33
387.78	242.14
388.15	242.52
388.53	242.00
388.91	242.14
389.29	242.19
389.66	242.81
390.04	242.29
390.42	242.62
390.79	242.81
391.17	242.81
391.55	239.81
391.92	239.86
392.30	240.00
392.68	239.24
393.05	238.90
393.43	238.71
393.81	239.24
394.18	239.10
394.56	238.81
394.94	239.48
395.31	239.14
395.69	240.24
396.06	240.62
396.44	241.43
396.82	241.05
397.19	242.19
397.57	241.67
397.95	242.14
398.32	241.38
398.70	241.52
399.07	242.33
399.45	242.48
399.82	242.71
400.20	242.52
400.58	242.57
400.95	241.57
401.33	242.29
401.70	243.95
402.08	244.10
402.45	244.33
402.83	245.29
403.20	245.62
403.58	245.33
403.95	245.43
404.33	245.29
404.71	245.43
405.08	247.14
405.46	247.48
405.83	248.05
406.21	248.48
406.58	248.71
406.96	248.90
407.33	249.62
407.70	250.10
408.08	252.57
408.45	253.43
408.83	255.10
409.20	255.57
409.58	254.52
409.95	256.00
410.33	257.57
410.70	257.29
411.08	258.81
411.45	259.76
411.82	260.76
412.20	262.81
412.57	266.00
412.95	265.19
413.32	267.38
413.69	268.81
414.07	271.00
414.44	273.14
414.82	275.29
415.19	277.33
415.56	279.86
415.94	280.90
416.31	284.24
416.68	286.57
417.06	289.81
417.43	294.14
417.81	297.86
418.18	301.05
418.55	304.95
418.93	309.24
419.30	314.24
419.67	319.33
420.04	324.05
420.42	328.00
420.79	335.67
421.16	340.86
421.54	348.33
421.91	354.05
422.28	360.05
422.66	366.43
423.03	375.19
423.40	382.24
423.77	389.33
424.15	396.29
424.52	404.10
424.89	413.10
425.26	420.29
425.64	427.48
426.01	436.05
426.38	444.86
426.75	454.05
427.13	462.33
427.50	471.14
427.87	480.76
428.24	490.76
428.61	499.38
428.99	511.52
429.36	521.57
429.73	533.33
430.10	545.71
430.47	557.14
430.85	567.86
431.22	580.62
431.59	596.43
431.96	609.67
432.33	624.71
432.70	638.48
433.08	655.62
433.45	670.62
433.82	685.90
434.19	703.52
434.56	719.62
434.93	736.00
435.30	752.33
435.68	769.57
436.05	785.43
436.42	802.10
436.79	817.24
437.16	834.43
437.53	850.95
437.90	867.14
438.27	884.76
438.64	901.57
439.01	917.90
439.38	929.52
439.75	942.33
440.13	957.05
440.50	970.90
440.87	981.19
441.24	993.57
441.61	1006.86
441.98	1014.52
442.35	1024.67
442.72	1034.95
443.09	1046.48
443.46	1052.19
443.83	1057.43
444.20	1060.33
444.57	1063.95
444.94	1063.86
445.31	1066.52
445.68	1070.48
446.05	1069.33
446.42	1066.10
446.79	1062.95
447.16	1058.81
447.53	1056.76
447.90	1048.48
448.27	1040.48
448.64	1031.10
449.01	1024.38
449.37	1011.43
449.74	1000.48
450.11	989.86
450.48	975.05
450.85	958.43
451.22	945.52
451.59	932.71
451.96	919.95
452.33	904.62
452.70	890.76
453.07	873.05
453.43	853.05
453.80	837.33
454.17	821.19
454.54	805.05
454.91	790.00
455.28	773.67
455.65	759.67
456.02	750.19
456.38	737.90
456.75	722.14
457.12	709.05
457.49	696.71
457.86	681.81
458.23	672.67
458.59	661.43
458.96	650.33
459.33	639.48
459.70	629.48
460.07	621.14
460.43	612.24
460.80	604.24
461.17	597.00
461.54	589.57
461.91	582.71
462.27	575.57
462.64	568.86
463.01	562.52
463.38	556.29
463.74	545.24
464.11	538.57
464.48	533.67
464.85	528.71
465.21	524.67
465.58	520.00
465.95	513.57
466.32	508.90
466.68	503.24
467.05	498.86
467.42	494.33
467.78	489.62
468.15	485.67
468.52	482.33
468.88	478.14
469.25	473.48
469.62	470.19
469.98	466.71
470.35	463.81
470.72	460.81
471.08	456.57
471.45	454.19
471.82	452.10
472.18	448.62
472.55	446.57
472.92	443.29
473.28	441.43
473.65	438.86
474.02	436.52
474.38	435.43
474.75	433.57
475.11	431.76
475.48	430.00
475.85	427.86
476.21	426.05
476.58	424.90
476.94	424.48
477.31	423.76
477.67	422.48
478.04	421.38
478.41	420.71
478.77	422.95
479.14	421.86
479.50	421.29
479.87	420.81
480.23	420.62
480.60	420.14
480.96	420.10
481.33	421.14
481.69	421.57
482.06	421.81
482.42	422.95
482.79	423.57
483.15	424.57
483.52	426.05
483.88	427.00
484.25	427.90
484.61	428.52
484.98	429.14
485.34	431.43
485.71	432.90
486.07	434.43
486.44	433.29
486.80	434.43
487.17	435.76
487.53	437.95
487.90	439.05
488.26	442.38
488.62	444.29
488.99	445.57
489.35	447.43
489.72	449.57
490.08	451.19
490.44	453.14
490.81	455.33
491.17	456.95
491.54	459.14
491.90	462.10
492.26	464.43
492.63	467.00
492.99	468.76
493.36	471.86
493.72	474.86
494.08	477.95
494.45	481.76
494.81	485.33
495.17	488.19
495.54	492.38
495.90	494.52
496.26	498.05
496.63	501.43
496.99	505.14
497.35	508.81
497.72	512.86
498.08	517.05
498.44	521.90
498.80	526.48
499.17	531.43
499.53	535.62
499.89	540.62
500.26	545.71
500.62	550.62
500.98	555.24
501.34	559.38
501.71	564.81
502.07	569.76
502.43	574.76
502.79	579.62
503.16	584.43
503.52	590.00
503.88	595.00
504.24	600.33
504.60	605.52
504.97	610.90
505.33	615.71
505.69	622.00
506.05	626.67
506.41	632.48
506.78	637.29
507.14	642.43
507.50	647.48
507.86	653.00
508.22	658.57
508.59	663.38
508.95	669.48
509.31	675.10
509.67	679.81
510.03	684.52
510.39	690.33
510.75	695.00
511.12	700.10
511.48	705.24
511.84	710.67
512.20	715.86
512.56	721.05
512.92	726.24
513.28	729.71
513.64	734.38
514.00	738.71
514.37	743.71
514.73	747.86
515.09	753.05
515.45	757.33
515.81	761.38
516.17	766.24
516.53	770.00
516.89	773.43
517.25	777.52
517.61	782.62
517.97	786.52
518.33	791.29
518.69	795.67
519.05	799.81
519.41	803.71
519.77	808.52
520.13	811.38
520.49	814.33
520.85	818.33
521.21	822.43
521.57	827.10
521.93	829.38
522.29	833.33
522.65	835.24
523.01	836.67
523.37	838.86
523.73	841.05
524.09	843.10
524.45	845.14
524.81	847.95
525.17	850.14
525.53	852.00
525.89	853.71
526.25	855.76
526.61	856.86
526.97	857.38
527.33	858.38
527.68	862.33
528.04	864.71
528.40	866.57
528.76	868.24
529.12	868.86
529.48	871.33
529.84	872.00
530.20	873.86
530.56	876.00
530.91	877.90
531.27	879.62
531.63	881.10
531.99	882.19
532.35	882.86
532.71	882.76
533.07	883.38
533.42	886.76
533.78	886.05
534.14	888.52
534.50	890.38
534.86	892.52
535.21	891.24
535.57	892.52
535.93	892.95
536.29	894.52
536.65	896.00
537.00	896.19
537.36	898.24
537.72	900.19
538.08	902.24
538.44	903.10
538.79	904.57
539.15	906.95
539.51	909.76
539.87	912.00
540.22	914.62
540.58	917.24
540.94	917.33
541.29	921.29
541.65	921.71
542.01	923.62
542.37	924.24
542.72	925.67
543.08	926.00
543.44	927.29
543.79	925.71
544.15	924.38
544.51	925.95
544.87	924.71
545.22	923.86
545.58	923.10
545.94	922.14
546.29	920.33
546.65	918.00
547.01	914.76
547.36	911.62
547.72	908.95
548.07	906.38
548.43	903.52
548.79	899.33
549.14	896.67
549.50	893.90
549.86	890.00
550.21	887.57
550.57	885.24
550.92	881.52
551.28	880.14
551.64	878.67
551.99	875.62
552.35	872.48
552.70	868.90
553.06	866.00
553.41	864.19
553.77	864.10
554.13	861.95
554.48	861.05
554.84	859.67
555.19	857.14
555.55	857.19
555.90	855.38
556.26	854.52
556.61	852.33
556.97	849.24
557.32	847.62
557.68	845.62
558.03	843.86
558.39	842.71
558.74	840.29
559.10	837.86
559.45	836.00
559.81	836.10
560.16	834.67
560.52	833.43
560.87	831.05
561.23	827.52
561.58	827.86
561.94	825.19
562.29	823.67
562.64	823.05
563.00	819.05
563.35	817.19
563.71	814.81
564.06	813.38
564.42	812.19
564.77	811.00
565.12	809.43
565.48	810.48
565.83	809.52
566.19	808.10
566.54	806.38
566.89	804.00
567.25	802.57
567.60	802.19
567.96	803.86
568.31	804.57
568.66	804.14
569.02	800.67
569.37	799.86
569.72	798.43
570.08	797.00
570.43	795.86
570.78	794.43
571.14	793.05
571.49	791.76
571.84	790.86
572.20	790.05
572.55	788.52
572.90	784.71
573.26	782.52
573.61	781.38
573.96	781.29
574.31	779.71
574.67	778.10
575.02	776.52
575.37	772.19
575.72	769.81
576.08	768.19
576.43	768.10
576.78	766.33
577.13	765.24
577.49	764.00
577.84	763.29
578.19	761.86
578.54	760.71
578.90	759.76
579.25	758.43
579.60	756.81
579.95	755.67
580.30	754.05
580.66	752.76
581.01	751.43
581.36	748.57
581.71	747.86
582.06	747.19
582.42	745.24
582.77	743.57
583.12	741.95
583.47	740.71
583.82	738.52
584.17	737.19
584.53	736.05
584.88	734.33
585.23	732.86
585.58	731.62
585.93	729.43
586.28	727.57
586.63	726.19
586.98	723.90
587.34	722.05
587.69	719.90
588.04	717.90
588.39	714.90
588.74	712.05
589.09	710.29
589.44	705.90
589.79	703.48
590.14	700.67
590.49	697.14
590.84	693.19
591.19	690.81
591.54	687.86
591.89	683.95
592.25	682.76
592.60	678.57
592.95	675.10
593.30	672.33
593.65	668.52
594.00	663.90
594.35	667.33
594.70	664.29
595.05	661.43
595.40	658.00
595.75	655.38
596.10	653.19
596.45	649.57
596.80	647.19
597.15	644.00
597.50	641.19
597.85	640.05
598.19	638.29
598.54	634.48
598.89	631.29
599.24	629.05
599.59	624.71
599.94	621.90
600.29	619.10
600.64	617.05
600.99	616.00
601.34	614.29
601.69	605.29
602.04	602.29
602.39	599.86
602.74	598.19
603.08	595.90
603.43	595.14
603.78	592.81
604.13	591.57
604.48	590.57
604.83	589.19
605.18	587.57
605.53	587.10
605.87	589.00
606.22	593.10
606.57	597.10
606.92	601.33
607.27	607.81
607.62	614.05
607.96	619.86
608.31	623.38
608.66	627.67
609.01	630.81
609.36	635.00
609.70	638.48
610.05	641.10
610.40	644.24
610.75	645.38
611.10	647.71
611.44	647.90
611.79	647.81
612.14	647.86
612.49	646.05
612.83	643.76
613.18	639.52
613.53	633.76
613.88	627.10
614.22	619.57
614.57	610.81
614.92	601.33
615.27	592.95
615.61	584.95
615.96	577.62
616.31	571.48
616.65	565.33
617.00	559.10
617.35	552.95
617.70	546.38
618.04	541.00
618.39	535.48
618.74	531.38
619.08	527.19
619.43	523.57
619.78	519.86
620.12	516.33
620.47	513.76
620.82	510.00
621.16	506.67
621.51	505.57
621.85	502.43
622.20	501.19
622.55	497.95
622.89	495.76
623.24	493.76
623.59	491.05
623.93	488.62
624.28	486.33
624.62	486.95
624.97	486.95
625.32	484.95
625.66	483.62
626.01	481.71
626.35	480.14
626.70	478.57
627.04	478.90
627.39	477.43
627.73	476.71
628.08	475.48
628.43	474.00
628.77	470.38
629.12	468.62
629.46	465.86
629.81	464.24
630.15	462.76
630.50	460.86
630.84	459.24
631.19	456.90
631.53	454.24
631.88	448.86
632.22	444.95
632.57	443.43
632.91	440.62
633.26	438.14
633.60	435.43
633.95	432.67
634.29	428.86
634.64	426.33
634.98	422.76
635.32	421.38
635.67	419.48
636.01	417.86
636.36	416.48
636.70	415.38
637.05	412.76
637.39	410.67
637.73	408.67
638.08	407.57
638.42	405.71
638.77	404.38
639.11	403.19
639.45	401.33
639.80	399.24
640.14	398.33
640.49	396.86
640.83	395.57
641.17	393.81
641.52	392.52
641.86	391.71
642.20	391.38
642.55	389.10
642.89	387.52
643.23	386.05
643.58	385.33
643.92	383.24
644.26	383.05
644.61	382.14
644.95	381.05
645.29	379.33
645.64	379.14
645.98	378.19
646.32	377.95
646.66	377.43
647.01	376.52
647.35	375.62
647.69	375.67
648.04	374.95
648.38	374.52
648.72	373.57
649.06	372.14
649.41	370.14
649.75	369.38
650.09	369.10
650.43	368.19
650.78	366.76
651.12	365.81
651.46	364.29
651.80	362.86
652.14	361.62
652.49	361.48
652.83	359.33
653.17	358.38
653.51	356.67
653.85	355.62
654.20	354.10
654.54	352.43
654.88	350.19
655.22	348.71
655.56	347.62
655.90	346.76
656.25	345.62
656.59	344.95
656.93	343.86
657.27	343.29
657.61	342.71
657.95	341.86
658.29	341.00
658.64	340.52
658.98	339.62
659.32	338.71
659.66	337.00
660.00	337.00
660.34	336.05
660.68	335.62
661.02	334.52
661.36	333.95
661.70	333.00
662.05	332.29
662.39	332.52
662.73	332.48
663.07	333.14
663.41	332.95
663.75	331.95
664.09	331.76
664.43	330.48
664.77	329.38
665.11	328.19
665.45	327.62
665.79	327.33
666.13	326.57
666.47	325.71
666.81	325.14
667.15	323.76
667.49	322.95
667.83	322.48
668.17	321.90
668.51	320.90
668.85	320.81
669.19	321.57
669.53	320.24
669.87	318.90
670.21	316.90
670.55	316.14
670.89	316.90
671.23	316.05
671.57	315.00
671.91	314.57
672.25	314.33
672.58	314.43
672.92	312.71
673.26	312.52
673.60	312.52
673.94	311.90
674.28	311.81
674.62	311.67
674.96	310.95
675.30	310.76
675.64	310.81
675.97	309.90
676.31	308.29
676.65	307.57
676.99	307.52
677.33	306.62
677.67	306.00
678.01	303.95
678.34	303.52
678.68	303.86
679.02	302.90
679.36	302.05
679.70	300.90
680.04	301.00
680.37	300.10
680.71	299.10
681.05	298.86
681.39	298.24
681.73	297.57
682.06	297.19
682.40	296.67
682.74	296.52
683.08	297.19
683.42	296.48
683.75	296.76
684.09	296.05
684.43	296.19
684.77	295.62
685.10	295.52
685.44	295.24
685.78	294.33
686.12	294.19
686.45	293.62
686.79	293.29
687.13	292.95
687.46	292.67
687.80	293.14
688.14	292.62
688.48	292.43
688.81	292.10
689.15	291.86
689.49	291.24
689.82	290.86
690.16	289.52
690.50	289.24
690.83	288.19
691.17	287.29
691.51	286.57
691.84	286.43
692.18	286.05
692.52	285.57
692.85	285.52
693.19	285.95
693.52	285.67
693.86	285.10
694.20	284.71
694.53	284.86
694.87	283.76
695.21	282.95
695.54	282.29
695.88	281.33
696.21	280.38
696.55	280.05
696.88	279.14
697.22	278.57
697.56	278.43
697.89	278.33
698.23	278.29
698.56	277.76
698.90	277.71
699.23	277.33
699.57	277.05
699.90	276.29
700.24	275.33
700.58	275.86
700.91	276.05
701.25	277.90
701.58	278.43
701.92	279.33
702.25	279.48
702.59	279.67
702.92	280.52
703.26	280.95
703.59	281.43
703.93	283.86
704.26	284.62
704.60	285.19
704.93	285.33
705.26	285.33
705.60	286.19
705.93	285.90
706.27	287.05
706.60	287.90
706.94	289.67
707.27	289.81
707.61	289.90
707.94	289.95
708.27	288.19
708.61	287.86
708.94	287.52
709.28	287.33
709.61	287.00
709.94	286.57
710.28	286.05
710.61	285.33
710.95	282.67
711.28	283.57
711.61	282.71
711.95	282.62
712.28	281.95
712.61	281.38
712.95	282.00
713.28	282.10
713.61	280.52
713.95	278.62
714.28	277.76
714.61	276.48
714.95	275.52
715.28	274.38
715.61	273.29
715.95	272.90
716.28	272.48
716.61	272.10
716.95	271.19
717.28	270.67
717.61	270.19
717.94	269.62
718.28	267.24
718.61	266.81
718.94	265.86
719.27	265.29
719.61	264.76
719.94	263.67
720.27	262.05
720.60	261.90
720.94	261.43
721.27	261.71
721.60	262.00
721.93	262.00
722.27	262.81
722.60	262.52
722.93	261.67
723.26	261.48
723.59	261.00
723.93	261.38
724.26	261.48
724.59	261.14
724.92	261.24
725.25	261.90
725.59	262.00
725.92	262.00
726.25	262.14
726.58	261.95
726.91	261.95
727.24	262.48
727.57	262.48
727.91	262.05
728.24	261.71
728.57	261.52
728.90	261.52
729.23	260.48
729.56	261.71
729.89	261.81
730.22	261.71
730.55	261.19
730.89	260.57
731.22	260.29
731.55	260.14
731.88	260.14
732.21	259.38
732.54	258.57
732.87	258.29
733.20	258.24
733.53	258.00
733.86	257.90
734.19	257.05
734.52	256.95
734.85	258.52
735.18	258.19
735.51	258.71
735.84	258.38
736.17	258.86
736.50	257.38
736.83	259.67
737.16	259.48
737.49	259.62
737.82	259.71
738.15	259.81
738.48	259.95
738.81	259.43
739.14	258.95
739.47	259.14
739.80	259.38
740.13	259.57
740.46	259.67
740.79	259.29
741.12	258.81
741.45	258.62
741.78	257.38
742.11	257.81
742.44	257.24
742.77	257.71
743.10	257.38
743.43	257.29
743.75	255.19
744.08	258.14
744.41	258.05
744.74	257.67
745.07	257.33
745.40	257.43
745.73	258.62
746.06	258.86
746.39	259.24
746.71	259.14
747.04	258.48
747.37	258.19
747.70	258.52
748.03	259.00
748.36	259.33
748.68	259.29
749.01	258.67
749.34	258.14
749.67	258.10
750.00	258.19
750.33	259.43
750.65	259.29
750.98	256.14
751.31	256.14
751.64	256.57
751.97	257.81
752.29	257.48
752.62	256.38
752.95	256.24
753.28	255.48
753.60	255.05
753.93	255.86
754.26	255.43
754.59	254.33
754.91	254.29
755.24	253.57
755.57	253.24
755.90	253.05
756.22	252.71
756.55	252.00
756.88	251.52
757.20	250.43
757.53	249.71
757.86	249.71
758.19	249.62
758.51	249.52
758.84	247.90
759.17	248.19
759.49	248.33
759.82	249.29
760.15	249.43
760.47	249.24
760.80	248.38
761.13	248.67
761.45	248.81
761.78	248.52
762.11	248.71
762.43	248.81
762.76	248.62
763.08	249.19
763.41	249.14
763.74	249.43
764.06	248.81
764.39	248.86
764.71	248.67
765.04	248.52
765.37	247.67
765.69	247.90
766.02	247.38
766.34	246.81
766.67	245.57
767.00	246.05
767.32	247.67
767.65	249.38
767.97	249.43
768.30	249.38
768.62	249.24
768.95	248.95
769.27	248.62
769.60	248.86
769.92	248.62
770.25	248.43
770.57	247.86
770.90	248.19
771.22	247.86
771.55	247.81
771.87	248.24
772.20	248.67
772.52	250.52
772.85	253.19
773.17	253.57
773.50	253.86
773.82	253.14
774.15	251.62
774.47	249.57
774.80	249.05
775.12	249.38
775.45	249.14
775.77	249.29
776.09	249.43
776.42	249.38
776.74	249.62
777.07	249.52
777.39	249.43
777.72	249.19
778.04	249.24
778.36	249.10
778.69	248.76
779.01	248.76
779.33	246.62
779.66	243.76
779.98	243.14
780.31	243.10
780.63	244.57
780.95	244.95
781.28	245.10
781.60	244.81
781.92	244.48
782.25	244.57
782.57	244.48
782.89	244.19
783.22	244.24
783.54	243.76
783.86	243.95
784.19	243.76
784.51	244.57
784.83	244.67
785.16	244.71
785.48	244.67
785.80	244.81
786.12	244.76
786.45	244.95
786.77	245.29
787.09	245.33
787.42	244.05
787.74	243.95
788.06	244.19
788.38	244.43
788.71	244.19
789.03	244.14
789.35	244.57
789.67	244.48
789.99	244.71
790.32	244.48
790.64	244.86
790.96	246.95
791.28	246.05
791.61	245.52
791.93	245.81
792.25	245.43
792.57	247.19
792.89	246.95
793.21	247.43
793.54	247.33
793.86	247.05
794.18	247.19
794.50	246.67
794.82	246.43
795.14	246.81
795.47	247.67
795.79	248.05
796.11	247.57
796.43	247.76
796.75	247.43
797.07	247.62
797.39	247.33
797.71	245.57
798.04	245.38
798.36	245.90
798.68	245.81
799.00	246.38
799.32	244.48
799.64	244.86
799.96	244.24
800.28	244.48
800.60	244.10
800.92	244.05
801.24	244.14
801.56	244.33
801.89	244.05
802.21	243.81
802.53	243.10
802.85	243.24
803.17	243.86
803.49	243.62
803.81	243.48
804.13	243.29
804.45	242.95
804.77	243.33
805.09	243.14
805.41	242.71
805.73	242.14
806.05	242.00
806.37	242.24
806.69	242.38
807.01	242.43
807.33	242.95
807.65	242.62
807.97	243.95
808.28	243.90
808.60	244.05
808.92	243.86
809.24	245.52
809.56	245.24
809.88	244.62
810.20	244.57
810.52	245.05
810.84	244.62
811.16	244.71
811.48	244.48
811.80	245.48
812.12	245.48
812.43	245.81
812.75	246.00
813.07	245.48
813.39	245.48
813.71	245.05
814.03	244.52
814.35	244.57
814.67	243.38
814.98	243.00
815.30	242.90
815.62	242.43
815.94	240.76
816.26	241.67
816.58	241.19
816.89	241.33
817.21	240.86
817.53	241.38
817.85	241.71
818.17	241.67
818.48	240.62
818.80	241.14
819.12	240.76
819.44	240.38
819.76	240.43
820.07	240.29
820.39	240.10
820.71	240.71
821.03	240.57
821.34	240.52
821.66	240.86
821.98	241.00
822.30	240.81
822.61	242.19
822.93	241.24
823.25	241.57
823.57	241.67
823.88	242.10
824.20	241.86
824.52	241.95
824.83	242.10
825.15	241.90
825.47	241.90
825.79	242.38
826.10	242.14
826.42	241.76
826.74	241.76
827.05	241.95
827.37	241.90
827.69	242.10
828.00	242.14
828.32	242.19
828.64	242.10
828.95	243.62
829.27	242.95
829.58	242.90
829.90	243.05
830.22	243.29
830.53	242.48
830.85	242.14
831.17	241.38
831.48	241.57
831.80	241.90
832.11	241.29
832.43	240.76
832.75	240.67
833.06	242.62
833.38	242.52
833.69	242.62
834.01	242.76
834.32	242.57
834.64	242.10
834.96	242.10
835.27	242.05
835.59	241.29
835.90	241.00
836.22	241.14
836.53	240.62
836.85	240.19
837.16	242.90
837.48	243.00
837.79	244.43
838.11	244.38
838.42	244.29
838.74	245.00
839.05	244.90
839.37	245.29
839.68	243.38
840.00	243.14
840.31	243.14
840.63	242.81
840.94	242.48
841.26	242.81
841.57	242.86
841.88	243.05
842.20	242.67
842.51	242.29
842.83	242.14
843.14	244.38
843.46	244.48
843.77	243.33
844.08	243.43
844.40	242.14
844.71	241.81
845.03	241.57
845.34	241.24
845.65	241.38
845.97	241.14
846.28	241.14
846.60	241.48
846.91	241.38
847.22	241.14
847.54	241.71
847.85	242.14
848.16	241.71
848.48	241.24
848.79	242.38
849.10	242.62
849.42	243.10
849.73	240.86
850.04	240.90
850.36	239.67
850.67	239.86
850.98	240.05
851.30	240.05
851.61	240.05
851.92	240.14
852.23	241.00
852.55	241.57
852.86	242.14
853.17	242.00
853.49	242.33
853.80	243.10
854.11	243.52
854.42	243.57
854.74	243.48
855.05	243.71
855.36	242.43
855.67	242.52
855.99	242.43
856.30	245.29
856.61	245.10
856.92	245.43
857.23	245.19
857.55	244.76
857.86	244.76
858.17	245.00
858.48	244.52
858.79	244.00
859.11	243.76
859.42	243.43
859.73	243.29
860.04	243.24
860.35	242.33
860.66	241.52
860.98	241.14
861.29	241.43
861.60	241.10
861.91	241.43
862.22	241.24
862.53	240.62
862.84	237.95
863.16	238.48
863.47	238.05
863.78	238.19
864.09	238.52
864.40	238.52
864.71	238.38
865.02	238.52
865.33	238.00
865.64	237.52
865.95	237.43
866.27	239.14
866.58	238.76
866.89	239.10
867.20	239.00
867.51	238.57
867.82	238.52
868.13	239.05
868.44	238.62
868.75	239.05
869.06	239.10
869.37	239.29
869.68	238.57
869.99	239.05
870.30	239.43
870.61	239.57
870.92	239.43
871.23	239.19
871.54	239.62
871.85	240.67
872.16	241.33
872.47	241.19
872.78	239.57
873.09	239.95
873.40	239.57
873.71	239.57
874.02	240.05
874.33	239.76
874.64	239.71
874.95	240.29
875.26	239.52
875.56	239.52
875.87	239.14
876.18	239.05
876.49	241.19
876.80	240.86
877.11	240.19
877.42	240.52
877.73	240.76
878.04	240.38
878.35	240.00
878.66	239.71
878.96	239.86
879.27	239.86
879.58	239.62
879.89	239.52
880.20	240.33
880.51	239.67
880.82	239.67
881.12	239.10
881.43	238.62
881.74	238.48
882.05	238.52
882.36	238.76
882.67	239.24
882.97	236.71
883.28	236.43
883.59	236.67
883.90	236.48
884.21	236.76
884.51	236.19
884.82	235.86
885.13	235.76
885.44	235.57
885.74	235.62
886.05	235.48
886.36	235.76
886.67	235.10
886.98	236.86
887.28	237.33
887.59	237.76
887.90	237.57
888.20	237.81
888.51	238.24
888.82	238.19
889.13	238.10
889.43	240.10
889.74	239.90
890.05	240.05
890.35	239.76
890.66	239.52
890.97	239.76
891.28	239.48
891.58	239.57
891.89	239.62
892.20	239.48
892.50	239.10
892.81	239.05
893.12	238.67
893.42	237.24
893.73	237.24
894.04	236.86
894.34	237.33
894.65	237.05
894.95	236.52
895.26	236.29
895.57	237.43
895.87	235.14
896.18	235.76
896.48	235.81
896.79	236.05
897.10	236.38
897.40	236.62
897.71	236.90
898.01	236.67
898.32	236.76
898.63	236.57
898.93	237.43
899.24	237.24
899.54	237.24
899.85	237.48
900.15	237.19
900.46	237.19
900.76	237.48
901.07	237.62
901.38	237.90
901.68	238.14
901.99	237.05
902.29	237.43
902.60	237.19
902.90	236.90
903.21	236.81
903.51	236.43
903.82	237.14
904.12	237.05
904.43	237.19
904.73	237.00
905.03	237.14
905.34	239.14
905.64	239.00
905.95	238.86
906.25	238.24
906.56	238.10
906.86	238.48
907.17	238.05
907.47	238.19
907.77	237.71
908.08	237.24
908.38	237.38
908.69	237.57
908.99	237.86
909.30	237.95
909.60	238.38
909.90	238.76
910.21	237.90
910.51	237.62
910.81	237.90
911.12	238.14
911.42	238.33
911.73	235.90
912.03	236.14
912.33	237.05
912.64	237.14
912.94	237.00
913.24	236.57
913.55	236.43
913.85	236.24
914.15	236.76
914.46	237.33
914.76	236.86
915.06	236.57
915.37	236.05
915.67	236.05
915.97	235.86
916.27	235.43
916.58	235.33
916.88	235.67
917.18	235.43
917.49	237.43
917.79	237.24
918.09	237.62
918.39	238.48
918.70	238.10
919.00	238.29
919.30	239.38
919.60	239.33
919.91	239.00
920.21	239.14
920.51	238.52
920.81	238.14
921.12	238.81
921.42	238.76
921.72	239.10
922.02	239.48
922.32	239.81
922.63	239.81
922.93	241.38
923.23	241.33
923.53	241.10
923.83	239.19
924.13	239.14
924.44	238.86
924.74	239.33
925.04	240.24
925.34	240.52
925.64	239.62
925.94	239.76
926.24	241.57
926.55	241.71
926.85	242.33
927.15	242.67
927.45	242.48
927.75	242.33
928.05	242.48
928.35	242.19
928.65	242.24
928.95	242.38
929.26	241.19
929.56	241.62
929.86	241.90
930.16	241.90
930.46	242.10
930.76	242.62
931.06	241.19
931.36	240.19
931.66	240.48
931.96	240.62
932.26	240.86
932.56	239.71
932.86	239.81
933.16	239.57
933.46	239.33
933.76	239.05
934.06	239.90
934.36	240.33
934.66	240.29
934.96	240.29
935.26	240.67
935.56	241.19
935.86	240.43
936.16	239.95
936.46	239.81
936.76	239.76
937.06	239.05
937.36	239.33
937.66	239.52
937.96	239.19
938.26	238.71
938.56	238.67
938.86	238.86
939.16	239.57
939.46	240.10
939.76	240.10
940.06	240.29
940.35	239.52
940.65	238.71
940.95	238.90
941.25	238.48
941.55	237.95
941.85	237.48
942.15	238.33
942.45	239.38
942.75	239.29
943.04	239.10
943.34	239.76
943.64	239.52
943.94	239.14
944.24	239.19
944.54	239.81
944.84	239.57
945.13	239.05
945.43	238.24
945.73	237.95
946.03	238.14
946.33	237.48
946.62	237.43
946.92	237.29
947.22	237.29
947.52	237.24
947.82	237.67
948.11	237.62
948.41	236.81
948.71	236.05
949.01	236.29
949.31	236.24
949.60	235.90
949.90	236.43
950.20	236.48
950.50	236.38
950.79	235.86
951.09	236.43
951.39	236.38
951.69	236.29
951.98	236.71
952.28	236.67
952.58	236.71
952.87	236.62
953.17	237.24
953.47	236.95
953.76	237.24
954.06	236.71
954.36	236.24
954.66	236.43
954.95	237.10
955.25	237.29
955.55	237.81
955.84	237.43
956.14	237.43
956.44	237.67
956.73	237.29
957.03	237.48
957.32	237.24
957.62	237.43
957.92	237.71
958.21	237.38
958.51	240.24
958.81	240.71
959.10	240.95
959.40	241.29
959.69	241.52
959.99	241.62
960.29	241.48
960.58	241.48
960.88	242.52
961.17	242.14
961.47	241.90
961.76	241.43
962.06	241.76
962.36	241.67
962.65	241.86
962.95	242.19
963.24	242.24
963.54	242.48
963.83	242.62
964.13	242.62
964.42	242.29
964.72	240.19
965.01	240.33
965.31	240.48
965.60	240.05
965.90	241.52
966.19	240.86
966.49	241.24
966.78	241.19
967.08	240.67
967.37	240.76
967.67	240.57
967.96	241.24
968.26	241.52
968.55	241.57
968.85	241.05
969.14	240.90
969.43	240.81
969.73	240.29
970.02	240.00
970.32	239.71
970.61	239.81
970.91	238.90
971.20	238.57
971.49	238.29
971.79	238.14
972.08	236.29
972.38	236.67
972.67	236.62
972.96	237.05
973.26	236.67
973.55	237.19
973.85	237.14
974.14	236.95
974.43	236.95
974.73	236.57
975.02	236.67
975.31	236.86
975.61	236.95
975.90	236.90
976.19	236.76
976.49	237.14
976.78	236.95
977.07	237.14
977.37	237.48
977.66	237.67
977.95	237.71
978.24	238.10
978.54	238.90
978.83	238.62
979.12	238.38
979.42	238.57
979.71	238.43
980.00	238.57
980.29	238.62
980.59	238.00
980.88	238.67
981.17	238.76
981.46	238.52
981.76	238.24
982.05	239.10
982.34	239.10
982.63	239.14
982.93	239.43
983.22	240.10
983.51	240.29
983.80	240.71
984.09	240.90
984.39	240.90
984.68	240.19
984.97	240.38
985.26	240.57
985.55	240.62
985.85	240.05
986.14	240.29
986.43	240.52
986.72	240.57
987.01	240.00
987.30	239.86
987.59	239.81
987.89	239.86
988.18	238.90
988.47	238.86
988.76	238.33
989.05	238.10
989.34	237.38
989.63	237.76
989.92	237.24
990.22	236.95
990.51	236.62
990.80	236.71
991.09	236.81
991.38	236.81
991.67	236.52
991.96	236.19
992.25	236.29
992.54	235.62
992.83	235.48
993.12	235.48
993.41	235.90
993.70	237.43
993.99	238.10
994.28	238.57
994.58	239.29
994.87	239.29
995.16	239.33
995.45	239.38
995.74	238.38
996.03	238.76
996.32	239.10
996.61	240.19
996.90	239.76
997.19	239.52
997.48	239.62
997.77	239.29
998.06	239.67
998.34	239.38
998.63	239.33
998.92	239.67
999.21	239.81
999.50	239.76
999.79	238.33
1000.08	238.19
1000.37	238.24
1000.66	237.52
1000.95	238.24
1001.24	238.33
1001.53	238.90
1001.82	238.76
1002.11	238.05
1002.40	238.29
1002.68	238.38
1002.97	240.33
1003.26	240.29
1003.55	239.86
1003.84	240.14
1004.13	240.76
1004.42	240.76
1004.71	240.95
1004.99	240.62
1005.28	240.71
1005.57	240.62
1005.86	240.43
1006.15	240.10
1006.44	239.71
1006.72	240.10
1007.01	239.38
1007.30	239.38
1007.59	239.00
1007.88	239.10
1008.17	239.57
1008.45	239.00
1008.74	237.90
1009.03	236.62
1009.32	236.71
1009.60	236.81
1009.89	236.71
1010.18	235.67
1010.47	235.52
1010.76	235.43
1011.04	235.38
1011.33	235.52
1011.62	235.52
1011.91	236.00
1012.19	236.19
1012.48	235.95
1012.77	235.71
1013.05	237.14
1013.34	237.38
1013.63	237.29
1013.92	237.67
1014.20	237.43
1014.49	237.81
1014.78	238.24
1015.06	237.71
1015.35	237.86
1015.64	238.14
1015.92	238.95
1016.21	239.62
1016.50	239.76
1016.78	240.24
1017.07	240.86
1017.36	240.52
1017.64	240.10
1017.93	240.19
1018.22	240.05
1018.50	240.38
1018.79	240.62
1019.08	239.43
1019.36	239.57
1019.65	239.00
1019.93	239.33
1020.22	239.81
1020.51	240.86
1020.79	240.29
1021.08	235.00
1021.36	235.00
1021.65	240.00
1021.94	238.00
1022.22	245.00
1022.51	228.00
1022.79	246.00
1023.08	244.00
1023.36	269.00
1023.65	228.00
>>>>>End Processed Spectral Data<<<<<
