SpectraSuite Data File
++++++++++++++++++++++++++++++++++++
Date: Wed Nov 07 18:31:40 EST 2012
User: group
Dark Spectrum Present: No
Reference Spectrum Present: No
Number of Sampled Component Spectra: 1
Spectrometers: USB2E7196
Integration Time (usec): 1000000 (USB2E7196)
Spectra Averaged: 1 (USB2E7196)
Boxcar Smoothing: 10 (USB2E7196)
Correct for Electrical Dark: No (USB2E7196)
Strobe/Lamp Enabled: No (USB2E7196)
Correct for Detector Non-linearity: No (USB2E7196)
Correct for Stray Light: No (USB2E7196)
Number of Pixels in Processed Spectrum: 2048
>>>>>Begin Processed Spectral Data<<<<<
339.09	0.00
339.48	219.00
339.86	221.00
340.24	228.00
340.63	225.00
341.01	265.00
341.39	230.00
341.78	231.00
342.16	238.00
342.54	230.00
342.93	223.86
343.31	235.19
343.69	235.90
344.07	236.62
344.46	237.38
344.84	238.10
345.22	236.81
345.60	237.38
345.99	237.62
346.37	237.71
346.75	238.00
347.13	237.90
347.52	238.05
347.90	238.71
348.28	239.00
348.66	239.62
349.05	238.71
349.43	238.90
349.81	238.95
350.19	238.86
350.57	238.81
350.96	239.05
351.34	238.95
351.72	238.95
352.10	238.90
352.48	238.33
352.87	237.95
353.25	237.90
353.63	237.43
354.01	237.43
354.39	237.57
354.77	237.05
355.15	237.33
355.54	237.33
355.92	236.43
356.30	236.33
356.68	237.71
357.06	238.00
357.44	237.33
357.82	237.24
358.20	237.43
358.58	237.71
358.97	237.57
359.35	238.00
359.73	238.67
360.11	238.43
360.49	238.57
360.87	238.38
361.25	238.57
361.63	239.24
362.01	239.29
362.39	238.90
362.77	239.76
363.15	239.67
363.53	239.38
363.91	239.71
364.29	239.71
364.67	237.19
365.05	237.38
365.43	238.24
365.81	238.43
366.19	239.43
366.57	240.00
366.95	239.95
367.33	239.33
367.71	239.10
368.09	239.90
368.47	239.90
368.85	240.10
369.23	240.48
369.61	239.86
369.99	240.81
370.37	240.90
370.75	241.67
371.13	241.24
371.51	240.90
371.89	240.95
372.27	241.10
372.65	241.33
373.03	241.10
373.41	240.33
373.78	240.10
374.16	239.10
374.54	238.71
374.92	238.29
375.30	238.81
375.68	238.29
376.06	238.14
376.44	238.00
376.82	238.19
377.19	238.29
377.57	238.05
377.95	236.95
378.33	236.90
378.71	235.62
379.09	236.00
379.47	236.48
379.84	236.43
380.22	236.43
380.60	236.38
380.98	236.43
381.36	236.38
381.73	236.10
382.11	236.52
382.49	236.43
382.87	236.43
383.25	236.05
383.62	239.00
384.00	238.57
384.38	238.86
384.76	239.52
385.13	239.71
385.51	239.95
385.89	239.95
386.27	239.95
386.64	240.14
387.02	240.00
387.40	240.05
387.78	240.14
388.15	240.24
388.53	240.05
388.91	240.24
389.29	240.43
389.66	240.86
390.04	240.71
390.42	241.38
390.79	241.43
391.17	241.52
391.55	238.71
391.92	238.86
392.30	239.24
392.68	238.57
393.05	239.05
393.43	239.29
393.81	239.48
394.18	239.19
394.56	239.86
394.94	240.52
395.31	240.19
395.69	241.00
396.06	241.33
396.44	241.76
396.82	241.52
397.19	242.90
397.57	242.67
397.95	243.14
398.32	242.14
398.70	242.62
399.07	243.05
399.45	243.33
399.82	243.29
400.20	242.86
400.58	242.86
400.95	241.81
401.33	242.33
401.70	244.24
402.08	244.90
402.45	244.90
402.83	245.10
403.20	245.48
403.58	245.38
403.95	245.90
404.33	246.62
404.71	246.95
405.08	248.38
405.46	248.95
405.83	249.29
406.21	249.62
406.58	250.00
406.96	250.05
407.33	250.86
407.70	251.62
408.08	253.95
408.45	254.95
408.83	256.10
409.20	256.57
409.58	255.95
409.95	256.86
410.33	257.52
410.70	258.33
411.08	259.81
411.45	260.67
411.82	261.29
412.20	262.48
412.57	265.43
412.95	264.38
413.32	266.05
413.69	267.33
414.07	269.76
414.44	271.86
414.82	274.14
415.19	276.57
415.56	279.10
415.94	280.48
416.31	283.62
416.68	286.38
417.06	289.67
417.43	293.43
417.81	297.10
418.18	301.05
418.55	304.57
418.93	308.76
419.30	313.38
419.67	318.24
420.04	322.71
420.42	326.71
420.79	334.57
421.16	340.62
421.54	347.81
421.91	353.38
422.28	359.33
422.66	366.19
423.03	374.38
423.40	381.05
423.77	388.24
424.15	395.38
424.52	403.29
424.89	411.86
425.26	419.14
425.64	426.86
426.01	435.24
426.38	444.48
426.75	453.29
427.13	461.62
427.50	470.62
427.87	480.19
428.24	490.24
428.61	497.90
428.99	508.76
429.36	519.19
429.73	531.24
430.10	543.33
430.47	555.33
430.85	565.90
431.22	578.62
431.59	594.24
431.96	607.14
432.33	622.05
432.70	635.62
433.08	651.76
433.45	667.05
433.82	682.24
434.19	698.57
434.56	715.43
434.93	731.38
435.30	747.81
435.68	765.19
436.05	780.95
436.42	797.38
436.79	812.57
437.16	829.24
437.53	845.67
437.90	862.10
438.27	880.00
438.64	896.48
439.01	912.52
439.38	924.29
439.75	937.71
440.13	952.24
440.50	966.48
440.87	977.71
441.24	989.10
441.61	1002.19
441.98	1011.00
442.35	1021.76
442.72	1033.62
443.09	1044.48
443.46	1050.19
443.83	1055.19
444.20	1059.10
444.57	1063.81
444.94	1064.05
445.31	1066.29
445.68	1071.19
446.05	1068.62
446.42	1065.62
446.79	1062.86
447.16	1058.95
447.53	1056.05
447.90	1047.76
448.27	1039.57
448.64	1030.19
449.01	1023.52
449.37	1011.43
449.74	999.48
450.11	987.38
450.48	970.95
450.85	954.86
451.22	942.57
451.59	929.43
451.96	916.62
452.33	901.24
452.70	888.00
453.07	870.62
453.43	849.95
453.80	834.33
454.17	818.67
454.54	803.14
454.91	787.52
455.28	772.29
455.65	757.90
456.02	748.19
456.38	735.76
456.75	720.05
457.12	707.10
457.49	695.19
457.86	680.95
458.23	672.00
458.59	661.19
458.96	649.86
459.33	639.95
459.70	630.48
460.07	621.90
460.43	612.24
460.80	603.95
461.17	596.76
461.54	589.33
461.91	581.81
462.27	574.10
462.64	567.43
463.01	560.29
463.38	554.48
463.74	544.05
464.11	537.86
464.48	532.71
464.85	526.90
465.21	523.14
465.58	519.33
465.95	513.24
466.32	508.48
466.68	503.33
467.05	498.67
467.42	493.71
467.78	489.05
468.15	484.95
468.52	481.38
468.88	476.71
469.25	472.62
469.62	470.38
469.98	466.81
470.35	464.19
470.72	460.86
471.08	456.33
471.45	453.76
471.82	451.52
472.18	448.14
472.55	445.43
472.92	442.10
473.28	439.10
473.65	436.71
474.02	434.19
474.38	432.76
474.75	430.57
475.11	428.29
475.48	427.00
475.85	425.14
476.21	424.00
476.58	422.62
476.94	421.24
477.31	419.57
477.67	418.62
478.04	417.33
478.41	416.62
478.77	419.00
479.14	417.24
479.50	416.52
479.87	416.95
480.23	417.33
480.60	417.05
480.96	416.90
481.33	417.76
481.69	418.19
482.06	418.33
482.42	420.05
482.79	421.52
483.15	421.81
483.52	423.48
483.88	424.05
484.25	425.52
484.61	426.62
484.98	427.19
485.34	429.76
485.71	431.57
486.07	433.29
486.44	432.62
486.80	434.05
487.17	435.14
487.53	437.10
487.90	438.62
488.26	441.10
488.62	443.57
488.99	444.62
489.35	446.57
489.72	448.14
490.08	449.38
490.44	450.81
490.81	453.24
491.17	454.67
491.54	457.57
491.90	460.38
492.26	462.86
492.63	465.33
492.99	466.57
493.36	469.33
493.72	472.33
494.08	474.86
494.45	478.62
494.81	481.62
495.17	484.33
495.54	487.90
495.90	490.81
496.26	493.57
496.63	497.81
496.99	502.00
497.35	506.00
497.72	510.14
498.08	513.95
498.44	518.24
498.80	522.95
499.17	526.52
499.53	529.33
499.89	533.95
500.26	538.05
500.62	543.19
500.98	548.10
501.34	551.86
501.71	556.95
502.07	561.67
502.43	566.90
502.79	571.71
503.16	576.10
503.52	580.76
503.88	585.71
504.24	590.95
504.60	595.19
504.97	600.76
505.33	605.52
505.69	612.19
506.05	616.81
506.41	622.67
506.78	627.43
507.14	633.38
507.50	638.86
507.86	645.67
508.22	651.43
508.59	656.05
508.95	662.62
509.31	669.00
509.67	674.43
510.03	679.52
510.39	684.57
510.75	690.14
511.12	695.48
511.48	701.05
511.84	705.48
512.20	711.29
512.56	715.57
512.92	720.62
513.28	725.00
513.64	729.05
514.00	733.43
514.37	738.81
514.73	743.14
515.09	748.14
515.45	751.24
515.81	755.00
516.17	758.90
516.53	762.38
516.89	764.81
517.25	769.33
517.61	773.76
517.97	777.24
518.33	780.95
518.69	784.71
519.05	788.00
519.41	791.29
519.77	795.43
520.13	798.95
520.49	801.90
520.85	805.14
521.21	809.86
521.57	813.33
521.93	815.62
522.29	819.43
522.65	820.33
523.01	823.43
523.37	825.33
523.73	827.67
524.09	829.57
524.45	831.71
524.81	833.29
525.17	835.67
525.53	838.62
525.89	840.62
526.25	843.19
526.61	844.33
526.97	845.86
527.33	846.19
527.68	849.62
528.04	852.29
528.40	852.62
528.76	853.71
529.12	853.86
529.48	855.90
529.84	856.67
530.20	859.67
530.56	861.33
530.91	863.19
531.27	864.48
531.63	866.33
531.99	867.57
532.35	868.24
532.71	868.29
533.07	869.76
533.42	873.52
533.78	873.71
534.14	875.57
534.50	876.52
534.86	878.29
535.21	878.00
535.57	878.81
535.93	880.29
536.29	883.33
536.65	884.76
537.00	886.00
537.36	887.33
537.72	888.95
538.08	891.48
538.44	893.33
538.79	895.95
539.15	897.05
539.51	899.52
539.87	901.52
540.22	903.81
540.58	905.29
540.94	904.19
541.29	906.38
541.65	907.57
542.01	910.48
542.37	911.43
542.72	911.52
543.08	910.67
543.44	911.05
543.79	908.19
544.15	908.00
544.51	907.33
544.87	905.62
545.22	903.52
545.58	901.05
545.94	898.33
546.29	895.48
546.65	894.00
547.01	890.86
547.36	888.95
547.72	886.62
548.07	883.14
548.43	880.76
548.79	877.67
549.14	874.10
549.50	870.67
549.86	867.57
550.21	865.67
550.57	863.71
550.92	861.38
551.28	861.00
551.64	858.67
551.99	856.05
552.35	854.05
552.70	851.24
553.06	849.05
553.41	847.71
553.77	846.90
554.13	845.24
554.48	844.05
554.84	841.19
555.19	839.33
555.55	839.48
555.90	837.48
556.26	835.62
556.61	834.14
556.97	831.76
557.32	829.86
557.68	827.67
558.03	826.00
558.39	824.14
558.74	821.00
559.10	819.05
559.45	817.62
559.81	816.33
560.16	815.05
560.52	813.19
560.87	811.48
561.23	808.76
561.58	808.29
561.94	806.10
562.29	804.38
562.64	802.57
563.00	798.48
563.35	795.90
563.71	794.71
564.06	793.14
564.42	791.19
564.77	789.24
565.12	788.29
565.48	789.19
565.83	787.95
566.19	786.86
566.54	785.76
566.89	783.90
567.25	783.10
567.60	782.90
567.96	784.33
568.31	784.05
568.66	784.10
569.02	780.86
569.37	779.81
569.72	778.90
570.08	777.62
570.43	777.00
570.78	775.95
571.14	774.24
571.49	773.10
571.84	771.71
572.20	769.86
572.55	768.38
572.90	764.48
573.26	762.14
573.61	760.38
573.96	758.67
574.31	757.38
574.67	754.95
575.02	752.43
575.37	747.81
575.72	745.48
576.08	743.14
576.43	742.00
576.78	740.24
577.13	738.52
577.49	737.19
577.84	736.10
578.19	734.14
578.54	732.19
578.90	730.67
579.25	729.52
579.60	729.33
579.95	726.33
580.30	725.29
580.66	724.57
581.01	722.62
581.36	720.86
581.71	718.71
582.06	718.24
582.42	716.62
582.77	715.62
583.12	714.05
583.47	712.48
583.82	710.86
584.17	709.29
584.53	707.86
584.88	705.24
585.23	704.14
585.58	702.95
585.93	701.33
586.28	699.14
586.63	697.10
586.98	694.71
587.34	694.05
587.69	691.29
588.04	688.95
588.39	686.67
588.74	684.48
589.09	683.52
589.44	680.33
589.79	677.67
590.14	675.10
590.49	672.00
590.84	668.38
591.19	665.10
591.54	662.57
591.89	659.19
592.25	658.86
592.60	654.90
592.95	652.33
593.30	649.90
593.65	647.24
594.00	644.29
594.35	648.29
594.70	644.29
595.05	641.90
595.40	638.81
595.75	635.67
596.10	633.33
596.45	630.43
596.80	628.00
597.15	625.71
597.50	622.33
597.85	620.38
598.19	618.57
598.54	615.95
598.89	612.52
599.24	610.48
599.59	606.29
599.94	603.48
600.29	601.05
600.64	598.05
600.99	596.67
601.34	594.81
601.69	585.81
602.04	584.05
602.39	581.62
602.74	580.00
603.08	578.48
603.43	577.24
603.78	575.05
604.13	572.48
604.48	570.48
604.83	569.43
605.18	568.14
605.53	567.52
605.87	568.48
606.22	570.81
606.57	573.38
606.92	575.67
607.27	579.10
607.62	582.38
607.96	585.90
608.31	588.05
608.66	590.33
609.01	592.05
609.36	593.48
609.70	595.81
610.05	597.19
610.40	598.29
610.75	598.43
611.10	599.00
611.44	599.76
611.79	599.62
612.14	599.38
612.49	597.48
612.83	595.14
613.18	591.90
613.53	587.90
613.88	582.57
614.22	576.38
614.57	570.00
614.92	563.48
615.27	557.67
615.61	551.33
615.96	545.43
616.31	540.29
616.65	536.24
617.00	530.33
617.35	524.95
617.70	520.76
618.04	516.38
618.39	511.86
618.74	508.48
619.08	504.52
619.43	501.57
619.78	498.67
620.12	496.33
620.47	493.81
620.82	490.95
621.16	488.76
621.51	488.05
621.85	486.10
622.20	484.52
622.55	481.19
622.89	479.00
623.24	477.43
623.59	475.10
623.93	473.38
624.28	471.57
624.62	472.62
624.97	471.48
625.32	469.62
625.66	467.76
626.01	465.33
626.35	464.62
626.70	462.38
627.04	461.33
627.39	459.29
627.73	458.48
628.08	456.48
628.43	453.95
628.77	451.29
629.12	448.86
629.46	446.43
629.81	444.90
630.15	443.10
630.50	440.95
630.84	439.24
631.19	436.81
631.53	434.76
631.88	430.10
632.22	427.00
632.57	425.38
632.91	423.67
633.26	422.29
633.60	419.33
633.95	417.43
634.29	414.71
634.64	412.81
634.98	410.29
635.32	409.05
635.67	407.76
636.01	405.57
636.36	404.33
636.70	403.14
637.05	401.71
637.39	399.52
637.73	398.38
638.08	397.43
638.42	395.14
638.77	394.38
639.11	392.86
639.45	391.33
639.80	389.24
640.14	388.00
640.49	386.52
640.83	385.05
641.17	383.90
641.52	382.86
641.86	382.00
642.20	380.90
642.55	378.90
642.89	377.76
643.23	377.14
643.58	376.67
643.92	375.14
644.26	374.19
644.61	374.43
644.95	373.24
645.29	371.57
645.64	371.71
645.98	370.29
646.32	370.05
646.66	369.14
647.01	368.10
647.35	367.33
647.69	366.52
648.04	366.29
648.38	365.90
648.72	364.67
649.06	363.14
649.41	361.86
649.75	361.19
650.09	360.57
650.43	359.57
650.78	357.71
651.12	356.57
651.46	355.29
651.80	353.48
652.14	351.95
652.49	351.48
652.83	350.10
653.17	349.19
653.51	347.10
653.85	345.95
654.20	345.33
654.54	344.00
654.88	342.57
655.22	341.19
655.56	339.52
655.90	339.05
656.25	338.57
656.59	337.86
656.93	336.86
657.27	336.19
657.61	334.71
657.95	334.29
658.29	333.38
658.64	333.43
658.98	332.71
659.32	332.33
659.66	331.29
660.00	330.81
660.34	330.33
660.68	330.33
661.02	330.24
661.36	329.48
661.70	328.95
662.05	328.48
662.39	329.24
662.73	329.43
663.07	330.10
663.41	329.67
663.75	328.33
664.09	328.14
664.43	326.90
664.77	326.38
665.11	325.38
665.45	325.00
665.79	324.71
666.13	324.24
666.47	323.48
666.81	323.14
667.15	322.14
667.49	321.33
667.83	321.10
668.17	319.67
668.51	319.00
668.85	318.62
669.19	318.86
669.53	316.95
669.87	315.48
670.21	313.48
670.55	312.86
670.89	313.62
671.23	313.05
671.57	312.43
671.91	312.52
672.25	312.43
672.58	312.57
672.92	310.86
673.26	310.90
673.60	310.29
673.94	309.29
674.28	309.24
674.62	309.10
674.96	307.95
675.30	308.24
675.64	307.57
675.97	307.14
676.31	305.81
676.65	305.43
676.99	305.62
677.33	305.10
677.67	304.29
678.01	302.38
678.34	301.62
678.68	301.48
679.02	300.38
679.36	299.62
679.70	298.76
680.04	298.81
680.37	297.81
680.71	297.24
681.05	297.29
681.39	296.38
681.73	295.57
682.06	295.19
682.40	294.52
682.74	294.57
683.08	295.14
683.42	294.76
683.75	294.71
684.09	293.95
684.43	293.52
684.77	293.05
685.10	292.76
685.44	292.38
685.78	291.81
686.12	291.57
686.45	291.19
686.79	290.10
687.13	289.43
687.46	289.19
687.80	289.52
688.14	288.95
688.48	289.05
688.81	288.52
689.15	289.05
689.49	288.57
689.82	288.43
690.16	286.71
690.50	286.38
690.83	285.62
691.17	284.71
691.51	284.33
691.84	284.33
692.18	284.24
692.52	283.95
692.85	283.71
693.19	284.14
693.52	283.95
693.86	283.76
694.20	283.90
694.53	283.57
694.87	282.62
695.21	281.95
695.54	281.38
695.88	280.86
696.21	279.71
696.55	279.24
696.88	278.38
697.22	277.62
697.56	277.43
697.89	276.95
698.23	277.43
698.56	276.86
698.90	276.52
699.23	276.57
699.57	276.29
699.90	276.14
700.24	275.52
700.58	275.43
700.91	275.95
701.25	277.95
701.58	278.67
701.92	279.81
702.25	280.10
702.59	279.86
702.92	280.19
703.26	280.90
703.59	281.67
703.93	284.67
704.26	285.62
704.60	285.90
704.93	286.29
705.26	285.90
705.60	287.05
705.93	287.24
706.27	287.67
706.60	288.33
706.94	289.43
707.27	289.24
707.61	289.57
707.94	289.24
708.27	287.00
708.61	285.71
708.94	285.00
709.28	285.24
709.61	285.00
709.94	285.05
710.28	284.14
710.61	283.48
710.95	280.10
711.28	281.05
711.61	280.33
711.95	280.52
712.28	279.90
712.61	278.90
712.95	279.24
713.28	279.38
713.61	278.19
713.95	276.52
714.28	276.00
714.61	274.76
714.95	274.19
715.28	273.00
715.61	272.67
715.95	272.00
716.28	270.81
716.61	270.52
716.95	269.76
717.28	269.48
717.61	269.10
717.94	268.71
718.28	266.38
718.61	266.19
718.94	265.24
719.27	264.81
719.61	264.29
719.94	263.05
720.27	261.67
720.60	261.33
720.94	261.10
721.27	260.62
721.60	260.95
721.93	260.57
722.27	261.71
722.60	261.62
722.93	261.05
723.26	261.10
723.59	260.71
723.93	260.90
724.26	260.95
724.59	260.33
724.92	260.29
725.25	261.43
725.59	261.00
725.92	261.10
726.25	260.86
726.58	261.00
726.91	261.05
727.24	261.33
727.57	261.24
727.91	260.86
728.24	261.00
728.57	260.38
728.90	260.52
729.23	259.48
729.56	260.62
729.89	260.71
730.22	260.48
730.55	260.10
730.89	260.10
731.22	259.62
731.55	259.48
731.88	259.24
732.21	257.76
732.54	257.76
732.87	257.43
733.20	257.48
733.53	257.14
733.86	257.24
734.19	256.57
734.52	256.57
734.85	258.19
735.18	257.62
735.51	258.52
735.84	258.38
736.17	258.86
736.50	257.67
736.83	260.14
737.16	260.33
737.49	260.76
737.82	260.29
738.15	260.48
738.48	260.57
738.81	260.48
739.14	260.33
739.47	260.05
739.80	260.05
740.13	260.19
740.46	260.00
740.79	259.38
741.12	259.29
741.45	259.14
741.78	257.81
742.11	258.62
742.44	257.86
742.77	258.24
743.10	257.76
743.43	257.43
743.75	255.00
744.08	257.90
744.41	257.43
744.74	257.10
745.07	256.38
745.40	256.90
745.73	258.05
746.06	258.00
746.39	258.05
746.71	257.76
747.04	257.29
747.37	257.00
747.70	257.14
748.03	257.24
748.36	257.52
748.68	257.19
749.01	256.48
749.34	256.52
749.67	256.33
750.00	256.62
750.33	258.24
750.65	258.38
750.98	255.14
751.31	255.00
751.64	255.24
751.97	256.67
752.29	255.71
752.62	254.38
752.95	254.48
753.28	254.10
753.60	253.67
753.93	254.24
754.26	254.57
754.59	253.76
754.91	253.33
755.24	252.86
755.57	252.62
755.90	252.48
756.22	252.19
756.55	251.71
756.88	250.90
757.20	249.38
757.53	248.67
757.86	248.33
758.19	248.48
758.51	248.10
758.84	246.90
759.17	247.29
759.49	247.52
759.82	248.24
760.15	248.52
760.47	248.62
760.80	247.52
761.13	247.90
761.45	248.05
761.78	248.10
762.11	248.29
762.43	248.14
762.76	247.71
763.08	247.81
763.41	248.29
763.74	248.52
764.06	248.05
764.39	247.90
764.71	248.29
765.04	248.05
765.37	247.86
765.69	247.67
766.02	247.67
766.34	247.14
766.67	246.67
767.00	246.86
767.32	248.48
767.65	250.33
767.97	250.00
768.30	250.33
768.62	250.48
768.95	249.95
769.27	250.19
769.60	250.86
769.92	250.29
770.25	249.33
770.57	248.81
770.90	248.71
771.22	248.29
771.55	247.86
771.87	247.90
772.20	248.24
772.52	250.24
772.85	252.76
773.17	253.00
773.50	252.71
773.82	252.43
774.15	250.71
774.47	249.19
774.80	248.71
775.12	248.43
775.45	248.00
775.77	248.29
776.09	248.29
776.42	248.19
776.74	249.10
777.07	249.29
777.39	249.48
777.72	249.52
778.04	249.90
778.36	250.10
778.69	249.95
779.01	249.86
779.33	247.81
779.66	245.19
779.98	245.10
780.31	245.05
780.63	246.19
780.95	246.71
781.28	246.52
781.60	246.24
781.92	246.38
782.25	246.52
782.57	246.52
782.89	246.38
783.22	246.48
783.54	245.76
783.86	246.00
784.19	245.81
784.51	246.62
784.83	246.29
785.16	245.86
785.48	245.81
785.80	245.67
786.12	245.90
786.45	245.62
786.77	245.43
787.09	245.29
787.42	244.19
787.74	244.38
788.06	244.38
788.38	244.33
788.71	243.71
789.03	243.57
789.35	243.95
789.67	243.38
789.99	243.24
790.32	242.52
790.64	242.67
790.96	244.62
791.28	243.71
791.61	243.67
791.93	244.14
792.25	244.10
792.57	246.00
792.89	245.43
793.21	245.67
793.54	245.29
793.86	245.10
794.18	245.19
794.50	244.62
794.82	244.90
795.14	245.24
795.47	245.90
795.79	246.10
796.11	245.38
796.43	245.38
796.75	245.33
797.07	246.00
797.39	245.71
797.71	244.19
798.04	244.10
798.36	244.33
798.68	244.00
799.00	244.14
799.32	242.62
799.64	243.14
799.96	242.81
800.28	243.57
800.60	243.71
800.92	243.81
801.24	243.52
801.56	243.48
801.89	243.48
802.21	243.71
802.53	243.29
802.85	244.19
803.17	245.38
803.49	244.71
803.81	244.38
804.13	244.33
804.45	244.10
804.77	244.38
805.09	244.38
805.41	244.10
805.73	243.90
806.05	243.62
806.37	243.57
806.69	243.62
807.01	243.67
807.33	243.76
807.65	242.90
807.97	244.33
808.28	244.10
808.60	244.19
808.92	243.67
809.24	245.29
809.56	244.48
809.88	243.76
810.20	244.14
810.52	244.71
810.84	244.48
811.16	244.38
811.48	244.38
811.80	245.62
812.12	245.86
812.43	246.05
812.75	245.95
813.07	245.76
813.39	245.76
813.71	245.33
814.03	245.05
814.35	245.24
814.67	244.14
814.98	244.05
815.30	244.00
815.62	243.71
815.94	241.71
816.26	243.05
816.58	242.67
816.89	242.48
817.21	241.86
817.53	242.00
817.85	241.81
818.17	241.81
818.48	240.19
818.80	240.52
819.12	240.57
819.44	240.00
819.76	239.62
820.07	239.62
820.39	239.52
820.71	239.76
821.03	239.81
821.34	239.62
821.66	239.81
821.98	239.95
822.30	239.76
822.61	241.71
822.93	240.14
823.25	240.10
823.57	240.24
823.88	241.19
824.20	241.05
824.52	241.48
824.83	241.14
825.15	241.10
825.47	240.86
825.79	240.67
826.10	240.90
826.42	240.62
826.74	241.14
827.05	241.10
827.37	241.19
827.69	241.19
828.00	241.52
828.32	241.71
828.64	241.14
828.95	242.67
829.27	242.05
829.58	242.24
829.90	242.62
830.22	242.67
830.53	241.86
830.85	241.81
831.17	241.14
831.48	241.52
831.80	241.71
832.11	241.62
832.43	241.38
832.75	241.33
833.06	242.95
833.38	242.14
833.69	242.10
834.01	242.24
834.32	242.19
834.64	241.52
834.96	241.29
835.27	241.33
835.59	240.81
835.90	239.71
836.22	239.62
836.53	239.05
836.85	239.14
837.16	241.43
837.48	241.33
837.79	242.19
838.11	242.05
838.42	242.29
838.74	242.62
839.05	242.67
839.37	242.76
839.68	241.57
840.00	241.52
840.31	241.90
840.63	241.62
840.94	241.43
841.26	241.48
841.57	241.43
841.88	241.67
842.20	241.00
842.51	241.24
842.83	241.19
843.14	243.33
843.46	243.19
843.77	242.05
844.08	241.95
844.40	241.10
844.71	240.81
845.03	240.33
845.34	240.05
845.65	239.81
845.97	239.76
846.28	240.00
846.60	240.33
846.91	240.29
847.22	239.90
847.54	240.33
847.85	240.62
848.16	240.95
848.48	240.62
848.79	241.71
849.10	242.19
849.42	242.43
849.73	240.14
850.04	240.19
850.36	239.33
850.67	239.81
850.98	239.90
851.30	240.33
851.61	240.43
851.92	240.33
852.23	241.10
852.55	241.29
852.86	241.10
853.17	241.00
853.49	241.38
853.80	242.14
854.11	242.38
854.42	242.48
854.74	242.10
855.05	242.14
855.36	240.57
855.67	240.57
855.99	240.67
856.30	243.90
856.61	243.48
856.92	243.29
857.23	243.10
857.55	243.19
857.86	243.00
858.17	243.52
858.48	243.33
858.79	242.81
859.11	243.05
859.42	242.81
859.73	242.90
860.04	242.43
860.35	241.76
860.66	241.05
860.98	240.86
861.29	241.10
861.60	241.05
861.91	242.00
862.22	241.33
862.53	241.00
862.84	238.19
863.16	238.86
863.47	238.62
863.78	238.52
864.09	238.76
864.40	238.90
864.71	238.52
865.02	238.95
865.33	238.90
865.64	238.43
865.95	238.38
866.27	239.90
866.58	239.90
866.89	240.33
867.20	240.48
867.51	240.05
867.82	239.71
868.13	240.38
868.44	239.76
868.75	240.57
869.06	240.43
869.37	240.43
869.68	239.71
869.99	240.38
870.30	240.62
870.61	240.76
870.92	240.38
871.23	240.52
871.54	240.90
871.85	241.67
872.16	241.71
872.47	241.71
872.78	240.10
873.09	240.14
873.40	239.81
873.71	239.86
874.02	240.33
874.33	240.10
874.64	239.38
874.95	240.19
875.26	239.48
875.56	239.43
875.87	239.38
876.18	239.29
876.49	241.43
876.80	241.14
877.11	240.48
877.42	240.76
877.73	240.71
878.04	240.05
878.35	239.81
878.66	240.14
878.96	240.29
879.27	240.43
879.58	240.71
879.89	240.52
880.20	241.10
880.51	241.00
880.82	241.00
881.12	241.38
881.43	240.43
881.74	240.19
882.05	240.10
882.36	240.38
882.67	240.67
882.97	238.00
883.28	237.67
883.59	238.05
883.90	238.33
884.21	238.81
884.51	238.95
884.82	238.43
885.13	238.14
885.44	238.10
885.74	237.86
886.05	237.29
886.36	237.48
886.67	236.57
886.98	238.00
887.28	238.71
887.59	238.81
887.90	239.19
888.20	239.33
888.51	240.00
888.82	239.33
889.13	239.86
889.43	241.81
889.74	241.86
890.05	241.71
890.35	241.10
890.66	240.52
890.97	240.00
891.28	239.71
891.58	240.19
891.89	240.19
892.20	239.81
892.50	239.62
892.81	239.67
893.12	239.95
893.42	238.24
893.73	238.10
894.04	238.00
894.34	238.19
894.65	238.33
894.95	237.90
895.26	238.52
895.57	239.38
895.87	237.38
896.18	237.86
896.48	238.10
896.79	238.19
897.10	238.71
897.40	238.95
897.71	239.48
898.01	239.24
898.32	239.43
898.63	239.57
898.93	240.10
899.24	240.00
899.54	239.90
899.85	239.90
900.15	239.57
900.46	239.62
900.76	239.81
901.07	239.71
901.38	239.95
901.68	240.00
901.99	238.62
902.29	238.86
902.60	238.71
902.90	238.43
903.21	238.52
903.51	238.38
903.82	239.14
904.12	239.29
904.43	239.19
904.73	238.90
905.03	239.19
905.34	241.38
905.64	241.29
905.95	241.24
906.25	241.14
906.56	241.10
906.86	240.90
907.17	240.43
907.47	240.29
907.77	239.76
908.08	239.24
908.38	239.62
908.69	239.67
908.99	240.05
909.30	240.10
909.60	240.14
909.90	240.43
910.21	239.43
910.51	239.14
910.81	239.24
911.12	239.67
911.42	239.76
911.73	237.24
912.03	237.48
912.33	237.86
912.64	238.19
912.94	238.33
913.24	238.14
913.55	238.00
913.85	238.10
914.15	238.81
914.46	239.00
914.76	238.76
915.06	238.71
915.37	238.24
915.67	238.19
915.97	238.10
916.27	237.29
916.58	237.05
916.88	237.10
917.18	236.95
917.49	238.33
917.79	238.14
918.09	238.76
918.39	239.48
918.70	239.33
919.00	239.38
919.30	240.43
919.60	240.33
919.91	240.00
920.21	240.14
920.51	239.52
920.81	239.62
921.12	239.86
921.42	239.33
921.72	239.62
922.02	239.71
922.32	240.10
922.63	240.19
922.93	241.76
923.23	241.57
923.53	241.29
923.83	239.71
924.13	239.90
924.44	239.57
924.74	239.81
925.04	240.48
925.34	240.29
925.64	239.33
925.94	238.95
926.24	240.76
926.55	240.48
926.85	240.95
927.15	241.00
927.45	241.05
927.75	241.24
928.05	241.10
928.35	240.76
928.65	241.33
928.95	241.76
929.26	240.95
929.56	241.48
929.86	242.10
930.16	241.81
930.46	241.71
930.76	241.86
931.06	240.62
931.36	239.90
931.66	240.33
931.96	240.43
932.26	240.86
932.56	239.57
932.86	239.86
933.16	239.81
933.46	239.62
933.76	239.19
934.06	240.19
934.36	241.24
934.66	241.48
934.96	240.81
935.26	240.76
935.56	240.95
935.86	240.52
936.16	239.81
936.46	240.14
936.76	239.76
937.06	239.57
937.36	239.95
937.66	239.86
937.96	239.67
938.26	239.24
938.56	239.29
938.86	239.48
939.16	240.05
939.46	240.33
939.76	240.33
940.06	240.38
940.35	239.62
940.65	237.95
940.95	238.10
941.25	237.86
941.55	237.48
941.85	237.52
942.15	237.90
942.45	238.86
942.75	238.38
943.04	238.90
943.34	239.14
943.64	238.90
943.94	238.95
944.24	239.52
944.54	239.67
944.84	239.52
945.13	239.19
945.43	238.33
945.73	238.05
946.03	237.81
946.33	237.76
946.62	237.43
946.92	237.57
947.22	237.67
947.52	237.62
947.82	237.95
948.11	237.67
948.41	237.05
948.71	236.43
949.01	236.62
949.31	236.38
949.60	236.24
949.90	236.81
950.20	236.43
950.50	235.86
950.79	235.71
951.09	236.14
951.39	236.14
951.69	236.14
951.98	236.62
952.28	236.71
952.58	236.33
952.87	236.33
953.17	236.81
953.47	236.29
953.76	236.33
954.06	235.76
954.36	235.57
954.66	235.86
954.95	236.48
955.25	236.62
955.55	236.81
955.84	236.38
956.14	236.19
956.44	236.57
956.73	236.24
957.03	236.33
957.32	236.00
957.62	235.95
957.92	236.76
958.21	236.52
958.51	239.43
958.81	240.24
959.10	240.81
959.40	241.29
959.69	241.52
959.99	242.00
960.29	242.24
960.58	241.95
960.88	242.67
961.17	241.95
961.47	242.29
961.76	242.00
962.06	242.67
962.36	242.52
962.65	242.38
962.95	242.71
963.24	242.62
963.54	242.90
963.83	243.14
964.13	242.71
964.42	242.14
964.72	240.05
965.01	239.76
965.31	239.24
965.60	238.86
965.90	240.71
966.19	240.00
966.49	240.19
966.78	240.38
967.08	240.24
967.37	240.62
967.67	240.24
967.96	240.90
968.26	240.95
968.55	241.10
968.85	241.10
969.14	241.10
969.43	241.24
969.73	241.33
970.02	241.05
970.32	240.95
970.61	241.05
970.91	240.19
971.20	239.95
971.49	240.24
971.79	240.33
972.08	238.48
972.38	239.00
972.67	239.00
972.96	239.62
973.26	239.10
973.55	239.67
973.85	239.33
974.14	238.76
974.43	238.76
974.73	238.05
975.02	238.00
975.31	237.86
975.61	237.81
975.90	237.33
976.19	237.19
976.49	237.43
976.78	237.48
977.07	237.57
977.37	237.86
977.66	237.95
977.95	237.90
978.24	238.19
978.54	238.33
978.83	238.10
979.12	237.57
979.42	237.57
979.71	236.95
980.00	237.33
980.29	237.33
980.59	236.67
980.88	237.90
981.17	237.95
981.46	238.05
981.76	238.10
982.05	239.19
982.34	239.43
982.63	239.48
982.93	239.29
983.22	240.05
983.51	240.10
983.80	240.24
984.09	240.14
984.39	239.57
984.68	239.48
984.97	239.62
985.26	239.52
985.55	239.57
985.85	239.19
986.14	239.33
986.43	239.48
986.72	239.52
987.01	238.29
987.30	238.19
987.59	237.95
987.89	238.19
988.18	237.19
988.47	236.90
988.76	236.48
989.05	236.33
989.34	235.62
989.63	236.33
989.92	236.10
990.22	236.05
990.51	236.29
990.80	236.00
991.09	236.10
991.38	236.38
991.67	236.05
991.96	235.95
992.25	236.00
992.54	235.86
992.83	235.81
993.12	236.00
993.41	236.43
993.70	237.38
993.99	237.76
994.28	238.05
994.58	238.33
994.87	238.05
995.16	238.24
995.45	238.14
995.74	237.14
996.03	237.48
996.32	238.00
996.61	238.48
996.90	238.43
997.19	238.33
997.48	238.71
997.77	238.71
998.06	239.10
998.34	238.71
998.63	238.76
998.92	238.71
999.21	239.14
999.50	239.05
999.79	238.38
1000.08	238.00
1000.37	238.10
1000.66	238.14
1000.95	239.14
1001.24	239.43
1001.53	239.90
1001.82	239.95
1002.11	239.52
1002.40	239.62
1002.68	240.19
1002.97	242.19
1003.26	241.71
1003.55	241.05
1003.84	241.48
1004.13	241.90
1004.42	242.05
1004.71	241.81
1004.99	241.57
1005.28	241.48
1005.57	241.24
1005.86	240.90
1006.15	240.52
1006.44	240.00
1006.72	240.33
1007.01	239.71
1007.30	239.52
1007.59	239.38
1007.88	239.14
1008.17	239.00
1008.45	238.38
1008.74	236.95
1009.03	235.67
1009.32	235.90
1009.60	235.81
1009.89	235.52
1010.18	234.71
1010.47	234.62
1010.76	234.95
1011.04	235.24
1011.33	235.24
1011.62	235.43
1011.91	235.76
1012.19	236.05
1012.48	236.29
1012.77	236.10
1013.05	237.10
1013.34	236.95
1013.63	236.90
1013.92	237.14
1014.20	237.24
1014.49	237.14
1014.78	237.48
1015.06	236.62
1015.35	236.52
1015.64	236.76
1015.92	236.90
1016.21	237.05
1016.50	236.90
1016.78	236.86
1017.07	237.14
1017.36	237.29
1017.64	237.10
1017.93	237.19
1018.22	237.00
1018.50	236.81
1018.79	236.57
1019.08	235.29
1019.36	235.71
1019.65	235.19
1019.93	235.86
1020.22	236.24
1020.51	237.57
1020.79	237.48
1021.08	234.00
1021.36	231.00
1021.65	236.00
1021.94	230.00
1022.22	242.00
1022.51	228.00
1022.79	249.00
1023.08	244.00
1023.36	265.00
1023.65	230.00
>>>>>End Processed Spectral Data<<<<<
