SpectraSuite Data File
++++++++++++++++++++++++++++++++++++
Date: Wed Nov 07 18:32:57 EST 2012
User: group
Dark Spectrum Present: No
Reference Spectrum Present: No
Number of Sampled Component Spectra: 1
Spectrometers: USB2E7196
Integration Time (usec): 1000000 (USB2E7196)
Spectra Averaged: 1 (USB2E7196)
Boxcar Smoothing: 10 (USB2E7196)
Correct for Electrical Dark: No (USB2E7196)
Strobe/Lamp Enabled: No (USB2E7196)
Correct for Detector Non-linearity: No (USB2E7196)
Correct for Stray Light: No (USB2E7196)
Number of Pixels in Processed Spectrum: 2048
>>>>>Begin Processed Spectral Data<<<<<
339.09	0.00
339.48	221.00
339.86	218.00
340.24	220.00
340.63	221.00
341.01	258.00
341.39	222.00
341.78	239.00
342.16	231.00
342.54	225.00
342.93	221.00
343.31	232.10
343.69	232.52
344.07	233.19
344.46	234.29
344.84	235.00
345.22	233.76
345.60	234.38
345.99	233.81
346.37	234.00
346.75	234.24
347.13	234.00
347.52	234.38
347.90	235.19
348.28	235.33
348.66	236.38
349.05	235.29
349.43	235.81
349.81	236.05
350.19	235.90
350.57	235.90
350.96	236.14
351.34	236.38
351.72	236.43
352.10	236.52
352.48	236.14
352.87	236.05
353.25	236.14
353.63	236.05
354.01	236.38
354.39	236.62
354.77	236.90
355.15	237.86
355.54	237.86
355.92	237.38
356.30	237.19
356.68	238.33
357.06	239.00
357.44	238.57
357.82	238.29
358.20	239.00
358.58	239.29
358.97	239.62
359.35	240.24
359.73	241.05
360.11	241.24
360.49	241.33
360.87	241.48
361.25	241.95
361.63	243.19
362.01	243.57
362.39	243.67
362.77	243.95
363.15	243.71
363.53	243.33
363.91	243.52
364.29	243.71
364.67	241.38
365.05	241.43
365.43	241.86
365.81	242.76
366.19	243.67
366.57	244.52
366.95	244.43
367.33	243.81
367.71	243.62
368.09	244.29
368.47	244.33
368.85	244.43
369.23	245.14
369.61	243.81
369.99	244.57
370.37	244.57
370.75	245.48
371.13	245.05
371.51	245.10
371.89	245.33
372.27	245.52
372.65	246.14
373.03	246.14
373.41	245.90
373.78	245.38
374.16	244.29
374.54	243.62
374.92	243.43
375.30	243.43
375.68	243.14
376.06	243.10
376.44	242.95
376.82	242.71
377.19	242.29
377.57	242.48
377.95	241.86
378.33	241.76
378.71	240.43
379.09	240.57
379.47	241.05
379.84	240.81
380.22	240.52
380.60	239.86
380.98	239.57
381.36	239.29
381.73	238.86
382.11	239.52
382.49	239.52
382.87	239.05
383.25	239.05
383.62	242.10
384.00	241.52
384.38	241.76
384.76	242.48
385.13	243.29
385.51	243.24
385.89	242.43
386.27	242.67
386.64	243.43
387.02	243.05
387.40	242.62
387.78	242.81
388.15	243.05
388.53	243.29
388.91	243.48
389.29	243.52
389.66	243.90
390.04	243.43
390.42	244.10
390.79	244.67
391.17	244.67
391.55	241.57
391.92	241.10
392.30	241.33
392.68	240.71
393.05	240.38
393.43	240.76
393.81	241.29
394.18	240.57
394.56	240.19
394.94	240.95
395.31	240.62
395.69	241.29
396.06	241.57
396.44	241.48
396.82	241.29
397.19	242.38
397.57	242.19
397.95	242.48
398.32	241.48
398.70	241.38
399.07	242.00
399.45	242.19
399.82	242.71
400.20	242.43
400.58	242.62
400.95	241.81
401.33	241.76
401.70	243.38
402.08	244.10
402.45	244.33
402.83	244.95
403.20	245.43
403.58	245.19
403.95	245.71
404.33	246.43
404.71	246.76
405.08	248.29
405.46	248.71
405.83	249.24
406.21	249.48
406.58	250.10
406.96	249.95
407.33	250.62
407.70	251.10
408.08	253.67
408.45	254.71
408.83	255.81
409.20	256.38
409.58	255.57
409.95	256.24
410.33	257.33
410.70	257.33
411.08	258.90
411.45	260.00
411.82	260.95
412.20	262.57
412.57	264.81
412.95	264.05
413.32	265.90
413.69	267.24
414.07	269.43
414.44	271.33
414.82	273.76
415.19	275.90
415.56	278.24
415.94	279.10
416.31	282.00
416.68	284.71
417.06	288.48
417.43	292.48
417.81	296.71
418.18	300.24
418.55	304.43
418.93	308.71
419.30	312.76
419.67	317.38
420.04	321.81
420.42	326.81
420.79	334.71
421.16	340.67
421.54	348.33
421.91	354.00
422.28	359.76
422.66	366.29
423.03	374.76
423.40	381.81
423.77	389.67
424.15	397.38
424.52	405.14
424.89	413.95
425.26	421.57
425.64	429.14
426.01	436.95
426.38	445.52
426.75	454.57
427.13	464.19
427.50	473.90
427.87	483.67
428.24	493.05
428.61	500.48
428.99	512.14
429.36	522.57
429.73	534.10
430.10	546.00
430.47	557.71
430.85	568.10
431.22	581.48
431.59	597.05
431.96	609.43
432.33	624.10
432.70	637.86
433.08	654.00
433.45	668.86
433.82	684.29
434.19	701.05
434.56	716.62
434.93	732.00
435.30	747.05
435.68	764.33
436.05	782.05
436.42	798.57
436.79	813.24
437.16	829.52
437.53	846.62
437.90	863.62
438.27	881.10
438.64	897.81
439.01	913.19
439.38	924.24
439.75	937.57
440.13	952.67
440.50	966.76
440.87	977.90
441.24	989.52
441.61	1002.86
441.98	1012.95
442.35	1024.52
442.72	1035.81
443.09	1047.95
443.46	1054.33
443.83	1056.48
444.20	1060.43
444.57	1064.57
444.94	1065.38
445.31	1067.81
445.68	1072.81
446.05	1072.14
446.42	1069.10
446.79	1067.14
447.16	1063.90
447.53	1061.48
447.90	1052.71
448.27	1044.00
448.64	1034.67
449.01	1027.57
449.37	1015.62
449.74	1003.05
450.11	990.62
450.48	975.24
450.85	958.33
451.22	945.33
451.59	933.48
451.96	920.67
452.33	905.00
452.70	891.00
453.07	873.19
453.43	852.90
453.80	835.95
454.17	821.00
454.54	804.76
454.91	789.33
455.28	773.67
455.65	759.48
456.02	750.24
456.38	737.62
456.75	722.38
457.12	709.76
457.49	697.67
457.86	683.90
458.23	674.76
458.59	664.14
458.96	652.86
459.33	642.76
459.70	633.43
460.07	625.86
460.43	616.43
460.80	608.48
461.17	600.67
461.54	593.57
461.91	586.14
462.27	578.38
462.64	571.24
463.01	564.10
463.38	559.71
463.74	548.48
464.11	542.57
464.48	537.71
464.85	531.24
465.21	526.81
465.58	522.62
465.95	515.71
466.32	511.19
466.68	505.43
467.05	501.24
467.42	495.90
467.78	490.71
468.15	486.86
468.52	483.38
468.88	479.38
469.25	474.43
469.62	471.57
469.98	468.52
470.35	465.67
470.72	462.81
471.08	457.62
471.45	455.19
471.82	452.71
472.18	449.19
472.55	447.76
472.92	444.71
473.28	441.33
473.65	438.95
474.02	436.24
474.38	434.81
474.75	432.57
475.11	431.00
475.48	429.33
475.85	427.33
476.21	425.57
476.58	424.33
476.94	423.81
477.31	421.81
477.67	420.24
478.04	418.90
478.41	418.05
478.77	420.29
479.14	419.00
479.50	418.48
479.87	418.95
480.23	418.48
480.60	417.86
480.96	418.67
481.33	420.29
481.69	420.81
482.06	421.62
482.42	423.05
482.79	423.81
483.15	425.24
483.52	426.57
483.88	427.52
484.25	428.38
484.61	429.71
484.98	431.05
485.34	433.67
485.71	435.24
486.07	436.38
486.44	434.76
486.80	436.90
487.17	438.24
487.53	439.76
487.90	441.90
488.26	445.00
488.62	447.57
488.99	448.62
489.35	450.62
489.72	452.10
490.08	453.33
490.44	455.10
490.81	456.52
491.17	458.71
491.54	461.52
491.90	463.86
492.26	465.81
492.63	467.90
492.99	469.29
493.36	471.95
493.72	475.24
494.08	478.33
494.45	481.24
494.81	484.71
495.17	488.05
495.54	491.48
495.90	493.81
496.26	496.48
496.63	500.05
496.99	503.29
497.35	507.33
497.72	511.29
498.08	514.90
498.44	519.62
498.80	524.29
499.17	528.24
499.53	531.95
499.89	536.90
500.26	541.76
500.62	546.19
500.98	551.57
501.34	556.38
501.71	561.81
502.07	566.76
502.43	570.71
502.79	575.43
503.16	579.67
503.52	585.38
503.88	589.76
504.24	594.43
504.60	599.90
504.97	605.33
505.33	610.67
505.69	617.29
506.05	622.38
506.41	626.76
506.78	632.05
507.14	637.38
507.50	642.19
507.86	648.00
508.22	654.76
508.59	659.48
508.95	665.10
509.31	671.33
509.67	676.86
510.03	682.86
510.39	687.86
510.75	693.14
511.12	697.95
511.48	703.38
511.84	708.29
512.20	712.86
512.56	717.00
512.92	722.05
513.28	726.19
513.64	730.24
514.00	736.05
514.37	740.38
514.73	745.52
515.09	751.33
515.45	755.38
515.81	758.48
516.17	763.24
516.53	766.29
516.89	769.10
517.25	772.52
517.61	777.24
517.97	780.38
518.33	783.95
518.69	788.48
519.05	793.38
519.41	796.90
519.77	802.10
520.13	805.43
520.49	808.52
520.85	811.57
521.21	816.76
521.57	819.00
521.93	821.95
522.29	824.57
522.65	826.14
523.01	829.14
523.37	831.52
523.73	834.29
524.09	837.43
524.45	839.76
524.81	842.24
525.17	844.19
525.53	847.10
525.89	849.90
526.25	851.52
526.61	853.19
526.97	855.52
527.33	857.10
527.68	861.19
528.04	862.38
528.40	864.29
528.76	865.14
529.12	866.81
529.48	869.19
529.84	870.29
530.20	872.29
530.56	873.67
530.91	875.57
531.27	876.38
531.63	878.00
531.99	878.95
532.35	880.33
532.71	880.62
533.07	881.71
533.42	885.95
533.78	886.90
534.14	887.19
534.50	888.52
534.86	889.81
535.21	889.86
535.57	892.57
535.93	893.38
536.29	895.38
536.65	897.00
537.00	898.14
537.36	900.19
537.72	901.43
538.08	903.57
538.44	905.86
538.79	908.33
539.15	909.86
539.51	912.52
539.87	914.00
540.22	916.43
540.58	918.05
540.94	917.00
541.29	918.95
541.65	921.24
542.01	923.48
542.37	924.57
542.72	925.24
543.08	925.00
543.44	925.95
543.79	924.90
544.15	924.86
544.51	924.57
544.87	924.14
545.22	923.57
545.58	921.14
545.94	919.38
546.29	917.52
546.65	916.00
547.01	913.90
547.36	911.86
547.72	909.19
548.07	907.05
548.43	903.48
548.79	900.00
549.14	896.67
549.50	893.48
549.86	889.81
550.21	887.33
550.57	884.81
550.92	881.90
551.28	879.57
551.64	877.57
551.99	874.95
552.35	872.10
552.70	869.76
553.06	868.62
553.41	866.24
553.77	865.33
554.13	863.29
554.48	861.33
554.84	859.33
555.19	857.48
555.55	857.67
555.90	856.71
556.26	855.24
556.61	853.29
556.97	850.71
557.32	849.10
557.68	846.33
558.03	845.14
558.39	843.24
558.74	842.05
559.10	839.71
559.45	838.00
559.81	836.29
560.16	833.67
560.52	831.14
560.87	830.19
561.23	827.10
561.58	826.71
561.94	824.29
562.29	822.71
562.64	821.24
563.00	817.52
563.35	816.33
563.71	814.62
564.06	812.81
564.42	811.00
564.77	809.38
565.12	808.24
565.48	808.67
565.83	808.29
566.19	806.43
566.54	804.71
566.89	803.05
567.25	803.00
567.60	803.62
567.96	804.81
568.31	803.95
568.66	803.90
569.02	800.81
569.37	799.33
569.72	798.00
570.08	796.33
570.43	794.57
570.78	792.38
571.14	791.48
571.49	790.62
571.84	790.43
572.20	789.38
572.55	788.57
572.90	784.38
573.26	782.24
573.61	780.33
573.96	779.19
574.31	778.00
574.67	775.62
575.02	773.00
575.37	769.10
575.72	766.95
576.08	764.05
576.43	763.14
576.78	762.38
577.13	760.95
577.49	760.00
577.84	758.62
578.19	757.33
578.54	755.90
578.90	753.76
579.25	752.29
579.60	750.86
579.95	748.62
580.30	747.62
580.66	746.76
581.01	745.62
581.36	744.05
581.71	743.05
582.06	743.19
582.42	742.10
582.77	740.90
583.12	739.86
583.47	739.24
583.82	737.67
584.17	736.33
584.53	735.57
584.88	733.57
585.23	732.86
585.58	731.43
585.93	728.90
586.28	728.29
586.63	725.71
586.98	723.76
587.34	722.38
587.69	719.76
588.04	716.81
588.39	714.76
588.74	712.62
589.09	710.52
589.44	706.10
589.79	703.29
590.14	700.62
590.49	696.67
590.84	693.05
591.19	689.95
591.54	686.81
591.89	682.57
592.25	681.52
592.60	677.48
592.95	674.24
593.30	672.05
593.65	668.38
594.00	665.33
594.35	668.52
594.70	665.29
595.05	662.76
595.40	659.81
595.75	656.71
596.10	654.05
596.45	650.33
596.80	648.24
597.15	645.00
597.50	642.24
597.85	640.67
598.19	638.29
598.54	635.24
598.89	632.19
599.24	629.86
599.59	625.81
599.94	623.57
600.29	620.81
600.64	617.71
600.99	616.14
601.34	613.90
601.69	604.86
602.04	602.48
602.39	599.71
602.74	598.29
603.08	595.71
603.43	593.62
603.78	591.90
604.13	588.95
604.48	587.67
604.83	585.95
605.18	584.43
605.53	584.43
605.87	586.62
606.22	589.90
606.57	594.95
606.92	599.29
607.27	605.24
607.62	611.14
607.96	617.19
608.31	621.71
608.66	626.00
609.01	629.71
609.36	633.48
609.70	637.14
610.05	639.33
610.40	642.14
610.75	644.00
611.10	645.90
611.44	647.29
611.79	647.71
612.14	648.29
612.49	646.95
612.83	644.43
613.18	639.62
613.53	633.71
613.88	626.14
614.22	618.81
614.57	610.38
614.92	601.05
615.27	593.10
615.61	584.29
615.96	577.19
616.31	570.48
616.65	563.90
617.00	557.86
617.35	552.14
617.70	546.19
618.04	540.81
618.39	535.24
618.74	531.38
619.08	527.19
619.43	523.33
619.78	520.19
620.12	517.48
620.47	515.05
620.82	512.57
621.16	510.10
621.51	508.43
621.85	505.62
622.20	503.76
622.55	500.19
622.89	498.00
623.24	495.81
623.59	493.29
623.93	491.10
624.28	488.81
624.62	489.00
624.97	488.43
625.32	486.00
625.66	484.48
626.01	482.38
626.35	481.38
626.70	479.52
627.04	478.76
627.39	476.57
627.73	475.57
628.08	473.81
628.43	471.81
628.77	468.57
629.12	466.24
629.46	464.24
629.81	462.62
630.15	460.81
630.50	458.33
630.84	456.14
631.19	453.48
631.53	450.90
631.88	446.00
632.22	442.24
632.57	441.10
632.91	438.62
633.26	436.52
633.60	433.33
633.95	430.57
634.29	426.29
634.64	423.67
634.98	420.62
635.32	418.71
635.67	416.90
636.01	415.24
636.36	413.90
636.70	412.38
637.05	410.33
637.39	408.00
637.73	406.48
638.08	405.71
638.42	404.05
638.77	403.48
639.11	401.90
639.45	400.05
639.80	397.90
640.14	396.62
640.49	394.81
640.83	393.43
641.17	392.43
641.52	391.38
641.86	390.67
642.20	390.05
642.55	388.24
642.89	386.71
643.23	385.90
643.58	385.29
643.92	384.10
644.26	383.33
644.61	383.14
644.95	382.05
645.29	380.00
645.64	380.10
645.98	378.24
646.32	378.62
646.66	377.95
647.01	376.71
647.35	375.86
647.69	375.29
648.04	374.48
648.38	373.57
648.72	372.76
649.06	371.24
649.41	369.95
649.75	369.10
650.09	368.48
650.43	367.33
650.78	365.29
651.12	363.86
651.46	363.00
651.80	361.67
652.14	359.90
652.49	359.86
652.83	358.38
653.17	357.10
653.51	355.10
653.85	354.14
654.20	353.00
654.54	351.19
654.88	349.43
655.22	347.67
655.56	346.48
655.90	345.67
656.25	344.86
656.59	343.43
656.93	342.52
657.27	341.86
657.61	340.29
657.95	340.19
658.29	339.10
658.64	338.38
658.98	337.33
659.32	337.19
659.66	336.05
660.00	335.38
660.34	334.76
660.68	333.57
661.02	332.71
661.36	332.29
661.70	331.33
662.05	330.81
662.39	331.52
662.73	331.52
663.07	332.24
663.41	331.71
663.75	330.76
664.09	330.10
664.43	328.86
664.77	328.38
665.11	327.14
665.45	326.81
665.79	326.52
666.13	325.67
666.47	324.76
666.81	323.90
667.15	322.43
667.49	321.95
667.83	322.29
668.17	321.76
668.51	320.71
668.85	320.95
669.19	321.62
669.53	320.14
669.87	319.10
670.21	317.19
670.55	316.57
670.89	317.33
671.23	317.14
671.57	316.52
671.91	316.14
672.25	315.90
672.58	316.33
672.92	314.71
673.26	314.62
673.60	314.00
673.94	313.62
674.28	313.29
674.62	313.00
674.96	311.76
675.30	311.14
675.64	311.10
675.97	310.57
676.31	309.00
676.65	308.19
676.99	308.48
677.33	307.71
677.67	307.43
678.01	305.52
678.34	304.81
678.68	304.71
679.02	303.90
679.36	303.00
679.70	301.57
680.04	301.33
680.37	300.67
680.71	300.10
681.05	300.05
681.39	300.00
681.73	299.14
682.06	298.52
682.40	298.00
682.74	297.10
683.08	297.62
683.42	296.95
683.75	297.14
684.09	295.57
684.43	295.67
684.77	295.00
685.10	294.90
685.44	294.14
685.78	293.62
686.12	293.14
686.45	292.81
686.79	291.95
687.13	292.33
687.46	291.81
687.80	292.10
688.14	291.05
688.48	290.38
688.81	290.24
689.15	290.71
689.49	290.33
689.82	290.48
690.16	288.76
690.50	288.57
690.83	287.95
691.17	287.19
691.51	286.43
691.84	285.95
692.18	285.52
692.52	284.90
692.85	284.48
693.19	285.10
693.52	284.52
693.86	284.33
694.20	283.43
694.53	283.14
694.87	282.67
695.21	282.14
695.54	281.90
695.88	281.24
696.21	279.90
696.55	279.67
696.88	278.86
697.22	278.43
697.56	277.90
697.89	277.33
698.23	277.57
698.56	277.38
698.90	277.33
699.23	276.90
699.57	276.81
699.90	276.14
700.24	275.33
700.58	275.57
700.91	275.95
701.25	278.00
701.58	278.86
701.92	279.52
702.25	280.00
702.59	280.14
702.92	280.76
703.26	281.24
703.59	281.43
703.93	284.10
704.26	284.90
704.60	285.81
704.93	285.86
705.26	286.24
705.60	286.95
705.93	286.67
706.27	287.76
706.60	288.95
706.94	290.48
707.27	290.57
707.61	290.86
707.94	290.95
708.27	288.81
708.61	288.14
708.94	287.48
709.28	287.00
709.61	286.19
709.94	285.67
710.28	285.52
710.61	285.00
710.95	281.76
711.28	282.48
711.61	281.52
711.95	281.71
712.28	280.57
712.61	279.52
712.95	280.43
713.28	280.33
713.61	278.62
713.95	276.90
714.28	275.95
714.61	274.57
714.95	273.43
715.28	272.67
715.61	271.67
715.95	270.57
716.28	270.10
716.61	269.95
716.95	269.00
717.28	268.33
717.61	267.95
717.94	267.76
718.28	265.38
718.61	265.05
718.94	263.90
719.27	263.52
719.61	263.38
719.94	262.29
720.27	260.81
720.60	260.43
720.94	260.24
721.27	260.10
721.60	260.43
721.93	260.14
722.27	260.29
722.60	260.29
722.93	260.14
723.26	260.05
723.59	259.62
723.93	259.67
724.26	259.24
724.59	258.71
724.92	259.05
725.25	259.71
725.59	259.29
725.92	259.67
726.25	259.86
726.58	259.43
726.91	259.14
727.24	259.05
727.57	259.10
727.91	258.67
728.24	258.90
728.57	258.67
728.90	258.90
729.23	258.62
729.56	259.90
729.89	259.62
730.22	259.33
730.55	259.19
730.89	259.14
731.22	259.29
731.55	259.00
731.88	258.86
732.21	258.38
732.54	258.14
732.87	257.76
733.20	257.29
733.53	257.48
733.86	257.86
734.19	257.81
734.52	258.05
734.85	259.67
735.18	259.33
735.51	259.95
735.84	259.67
736.17	260.05
736.50	258.19
736.83	261.24
737.16	261.33
737.49	261.43
737.82	261.24
738.15	261.81
738.48	262.00
738.81	261.57
739.14	261.14
739.47	260.95
739.80	261.19
740.13	261.52
740.46	260.95
740.79	260.19
741.12	260.14
741.45	259.81
741.78	258.14
742.11	258.71
742.44	258.05
742.77	258.48
743.10	257.86
743.43	257.62
743.75	254.95
744.08	257.62
744.41	257.24
744.74	257.29
745.07	256.29
745.40	256.67
745.73	257.48
746.06	257.52
746.39	257.95
746.71	257.48
747.04	257.19
747.37	257.33
747.70	257.52
748.03	257.33
748.36	257.48
748.68	257.67
749.01	256.57
749.34	256.62
749.67	256.48
750.00	256.71
750.33	258.76
750.65	259.14
750.98	256.00
751.31	256.19
751.64	255.95
751.97	257.29
752.29	256.90
752.62	255.71
752.95	255.81
753.28	255.38
753.60	255.24
753.93	256.14
754.26	256.14
754.59	255.81
754.91	255.71
755.24	255.38
755.57	254.62
755.90	254.52
756.22	254.10
756.55	253.71
756.88	253.38
757.20	251.52
757.53	250.67
757.86	250.95
758.19	250.90
758.51	250.95
758.84	249.52
759.17	249.33
759.49	249.43
759.82	250.48
760.15	250.29
760.47	250.33
760.80	249.29
761.13	249.57
761.45	249.24
761.78	249.05
762.11	249.14
762.43	249.14
762.76	249.29
763.08	249.52
763.41	249.52
763.74	249.57
764.06	249.81
764.39	249.81
764.71	249.33
765.04	249.43
765.37	249.19
765.69	249.00
766.02	248.95
766.34	248.86
766.67	247.24
767.00	248.10
767.32	249.29
767.65	250.76
767.97	250.43
768.30	250.62
768.62	250.90
768.95	250.33
769.27	250.29
769.60	250.48
769.92	249.71
770.25	248.86
770.57	248.52
770.90	248.19
771.22	247.95
771.55	247.90
771.87	247.43
772.20	247.14
772.52	249.29
772.85	251.86
773.17	251.95
773.50	252.48
773.82	251.67
774.15	250.57
774.47	248.90
774.80	248.71
775.12	248.43
775.45	247.95
775.77	248.33
776.09	248.86
776.42	248.57
776.74	249.57
777.07	249.95
777.39	250.14
777.72	249.86
778.04	250.33
778.36	250.76
778.69	251.05
779.01	251.19
779.33	249.10
779.66	246.38
779.98	245.90
780.31	245.71
780.63	246.95
780.95	247.43
781.28	247.24
781.60	246.76
781.92	246.67
782.25	246.67
782.57	246.05
782.89	245.52
783.22	245.43
783.54	245.00
783.86	245.29
784.19	244.52
784.51	245.52
784.83	244.76
785.16	244.29
785.48	244.19
785.80	244.10
786.12	244.24
786.45	244.38
786.77	244.90
787.09	244.52
787.42	243.00
787.74	242.57
788.06	242.86
788.38	242.90
788.71	242.86
789.03	242.76
789.35	243.62
789.67	243.57
789.99	244.00
790.32	243.71
790.64	243.86
790.96	245.71
791.28	244.57
791.61	244.67
791.93	244.76
792.25	244.33
792.57	246.29
792.89	245.86
793.21	245.90
793.54	245.48
793.86	245.33
794.18	245.95
794.50	245.62
794.82	245.57
795.14	245.95
795.47	246.38
795.79	246.76
796.11	246.10
796.43	246.10
796.75	246.00
797.07	246.00
797.39	245.90
797.71	244.52
798.04	244.57
798.36	244.90
798.68	244.57
799.00	244.95
799.32	243.62
799.64	244.24
799.96	244.10
800.28	244.48
800.60	244.62
800.92	244.81
801.24	245.00
801.56	245.19
801.89	245.29
802.21	245.29
802.53	244.76
802.85	245.43
803.17	246.67
803.49	246.14
803.81	246.10
804.13	245.67
804.45	245.52
804.77	246.00
805.09	245.67
805.41	245.48
805.73	245.05
806.05	244.57
806.37	244.29
806.69	244.29
807.01	244.48
807.33	244.62
807.65	243.81
807.97	244.76
808.28	244.33
808.60	244.05
808.92	243.62
809.24	245.19
809.56	244.52
809.88	243.57
810.20	243.71
810.52	244.38
810.84	244.10
811.16	243.90
811.48	243.43
811.80	244.33
812.12	244.52
812.43	244.71
812.75	244.86
813.07	244.67
813.39	244.38
813.71	243.90
814.03	243.62
814.35	243.67
814.67	242.57
814.98	242.43
815.30	242.29
815.62	242.00
815.94	240.24
816.26	241.57
816.58	240.86
816.89	240.86
817.21	239.86
817.53	239.81
817.85	239.76
818.17	240.14
818.48	239.29
818.80	239.90
819.12	239.57
819.44	239.00
819.76	238.86
820.07	238.90
820.39	238.76
820.71	238.71
821.03	238.76
821.34	238.43
821.66	239.00
821.98	239.05
822.30	239.00
822.61	240.62
822.93	239.00
823.25	239.43
823.57	239.33
823.88	240.05
824.20	240.43
824.52	241.14
824.83	240.76
825.15	240.81
825.47	240.67
825.79	241.14
826.10	241.00
826.42	240.86
826.74	241.10
827.05	241.14
827.37	241.43
827.69	241.57
828.00	241.81
828.32	241.48
828.64	241.29
828.95	242.76
829.27	241.81
829.58	242.24
829.90	242.19
830.22	242.48
830.53	241.86
830.85	241.81
831.17	240.90
831.48	240.86
831.80	240.67
832.11	240.43
832.43	240.14
832.75	240.90
833.06	242.48
833.38	241.95
833.69	242.05
834.01	242.19
834.32	241.95
834.64	241.57
834.96	241.57
835.27	241.86
835.59	240.90
835.90	240.67
836.22	240.81
836.53	240.62
836.85	240.38
837.16	242.86
837.48	243.05
837.79	244.00
838.11	244.05
838.42	243.95
838.74	244.43
839.05	244.14
839.37	243.52
839.68	241.90
840.00	241.95
840.31	241.95
840.63	241.57
840.94	241.38
841.26	241.43
841.57	241.71
841.88	242.00
842.20	241.67
842.51	241.52
842.83	241.38
843.14	243.57
843.46	243.62
843.77	242.24
844.08	241.67
844.40	240.81
844.71	241.05
845.03	241.19
845.34	240.90
845.65	240.90
845.97	241.10
846.28	241.33
846.60	241.52
846.91	241.24
847.22	241.24
847.54	241.81
847.85	242.05
848.16	241.62
848.48	241.19
848.79	242.33
849.10	242.52
849.42	242.81
849.73	240.71
850.04	240.48
850.36	239.57
850.67	240.05
850.98	239.90
851.30	240.19
851.61	239.95
851.92	239.81
852.23	240.81
852.55	240.76
852.86	240.76
853.17	240.95
853.49	241.71
853.80	241.90
854.11	242.05
854.42	242.48
854.74	242.48
855.05	242.48
855.36	241.19
855.67	241.29
855.99	241.14
856.30	243.76
856.61	243.67
856.92	243.76
857.23	243.76
857.55	243.76
857.86	243.29
858.17	243.81
858.48	243.48
858.79	242.71
859.11	242.95
859.42	242.90
859.73	242.48
860.04	242.00
860.35	241.57
860.66	240.67
860.98	240.14
861.29	240.10
861.60	239.76
861.91	240.33
862.22	239.76
862.53	239.19
862.84	236.38
863.16	237.24
863.47	237.00
863.78	236.81
864.09	237.33
864.40	237.67
864.71	237.29
865.02	237.38
865.33	237.38
865.64	236.86
865.95	236.86
866.27	238.81
866.58	238.62
866.89	239.29
867.20	239.38
867.51	239.19
867.82	239.52
868.13	240.24
868.44	239.76
868.75	240.57
869.06	240.86
869.37	241.29
869.68	240.33
869.99	240.62
870.30	240.81
870.61	240.52
870.92	240.05
871.23	239.86
871.54	240.29
871.85	240.71
872.16	241.14
872.47	240.81
872.78	239.05
873.09	239.52
873.40	239.10
873.71	239.52
874.02	239.71
874.33	239.29
874.64	238.86
874.95	239.29
875.26	238.81
875.56	238.90
875.87	239.05
876.18	239.24
876.49	241.76
876.80	241.48
877.11	241.19
877.42	241.48
877.73	241.71
878.04	241.19
878.35	241.19
878.66	241.33
878.96	241.29
879.27	241.24
879.58	240.81
879.89	240.86
880.20	241.19
880.51	241.24
880.82	241.43
881.12	241.57
881.43	240.95
881.74	240.38
882.05	240.10
882.36	239.71
882.67	239.95
882.97	237.43
883.28	237.38
883.59	237.52
883.90	237.43
884.21	237.62
884.51	237.48
884.82	237.00
885.13	236.90
885.44	236.95
885.74	237.10
886.05	236.95
886.36	237.05
886.67	236.38
886.98	237.71
887.28	238.00
887.59	238.14
887.90	238.33
888.20	238.33
888.51	238.71
888.82	238.62
889.13	238.81
889.43	240.71
889.74	240.62
890.05	240.52
890.35	240.67
890.66	240.24
890.97	240.05
891.28	239.95
891.58	239.76
891.89	239.67
892.20	239.38
892.50	239.19
892.81	238.95
893.12	238.81
893.42	237.29
893.73	237.00
894.04	236.76
894.34	236.90
894.65	236.95
894.95	236.86
895.26	237.24
895.57	237.90
895.87	235.57
896.18	235.95
896.48	236.00
896.79	235.81
897.10	236.14
897.40	236.43
897.71	236.57
898.01	236.48
898.32	237.00
898.63	237.00
898.93	237.24
899.24	237.24
899.54	237.00
899.85	236.86
900.15	236.86
900.46	236.95
900.76	237.05
901.07	237.10
901.38	237.05
901.68	237.05
901.99	236.05
902.29	236.38
902.60	236.19
902.90	236.05
903.21	236.14
903.51	235.95
903.82	236.67
904.12	236.62
904.43	236.86
904.73	236.76
905.03	236.95
905.34	239.62
905.64	239.52
905.95	239.67
906.25	239.71
906.56	239.48
906.86	239.57
907.17	239.57
907.47	239.76
907.77	239.43
908.08	238.95
908.38	239.05
908.69	239.05
908.99	239.38
909.30	239.57
909.60	239.33
909.90	239.52
910.21	238.90
910.51	238.71
910.81	238.48
911.12	238.62
911.42	238.62
911.73	235.95
912.03	236.24
912.33	236.57
912.64	236.29
912.94	236.29
913.24	235.81
913.55	236.00
913.85	236.05
914.15	236.62
914.46	237.05
914.76	237.10
915.06	237.00
915.37	236.33
915.67	236.24
915.97	236.24
916.27	235.67
916.58	235.67
916.88	235.71
917.18	235.86
917.49	237.38
917.79	237.33
918.09	237.57
918.39	237.95
918.70	238.24
919.00	238.62
919.30	239.90
919.60	239.81
919.91	239.48
920.21	239.52
920.51	238.90
920.81	238.67
921.12	238.90
921.42	239.10
921.72	239.48
922.02	239.43
922.32	240.05
922.63	240.33
922.93	241.48
923.23	241.76
923.53	241.19
923.83	239.52
924.13	239.52
924.44	239.90
924.74	240.43
925.04	241.00
925.34	241.10
925.64	239.86
925.94	239.90
926.24	241.19
926.55	240.81
926.85	241.38
927.15	241.24
927.45	241.33
927.75	240.95
928.05	240.90
928.35	241.10
928.65	241.52
928.95	241.81
929.26	240.90
929.56	241.29
929.86	241.90
930.16	241.90
930.46	242.10
930.76	241.95
931.06	240.76
931.36	240.10
931.66	240.52
931.96	240.95
932.26	241.10
932.56	239.86
932.86	240.14
933.16	240.14
933.46	240.10
933.76	239.67
934.06	240.48
934.36	241.52
934.66	241.33
934.96	240.71
935.26	240.76
935.56	241.14
935.86	240.38
936.16	240.00
936.46	239.62
936.76	239.48
937.06	239.05
937.36	239.29
937.66	239.43
937.96	239.33
938.26	239.00
938.56	238.76
938.86	239.10
939.16	239.43
939.46	239.52
939.76	239.71
940.06	239.57
940.35	238.90
940.65	237.48
940.95	237.67
941.25	236.90
941.55	236.52
941.85	236.19
942.15	236.76
942.45	237.52
942.75	237.86
943.04	237.90
943.34	238.57
943.64	238.52
943.94	237.90
944.24	237.95
944.54	237.86
944.84	237.95
945.13	237.38
945.43	237.14
945.73	237.24
946.03	236.90
946.33	236.76
946.62	236.67
946.92	236.62
947.22	236.81
947.52	237.33
947.82	237.95
948.11	238.05
948.41	237.57
948.71	236.81
949.01	236.57
949.31	236.48
949.60	236.29
949.90	236.52
950.20	236.52
950.50	236.29
950.79	236.48
951.09	236.81
951.39	236.90
951.69	236.43
951.98	236.90
952.28	236.95
952.58	237.10
952.87	236.90
953.17	237.43
953.47	237.24
953.76	237.05
954.06	236.33
954.36	235.62
954.66	235.76
954.95	236.52
955.25	237.00
955.55	237.14
955.84	236.29
956.14	236.52
956.44	236.57
956.73	236.29
957.03	236.19
957.32	235.95
957.62	235.76
957.92	236.33
958.21	235.76
958.51	238.90
958.81	239.29
959.10	240.19
959.40	240.71
959.69	240.81
959.99	241.43
960.29	241.43
960.58	241.57
960.88	242.52
961.17	242.24
961.47	242.52
961.76	242.05
962.06	242.76
962.36	242.43
962.65	242.48
962.95	242.52
963.24	242.33
963.54	242.81
963.83	243.05
964.13	243.19
964.42	242.43
964.72	240.05
965.01	239.95
965.31	239.14
965.60	238.38
965.90	240.14
966.19	239.19
966.49	239.43
966.78	239.48
967.08	239.10
967.37	239.24
967.67	238.43
967.96	238.86
968.26	238.95
968.55	239.19
968.85	239.57
969.14	239.67
969.43	239.71
969.73	239.52
970.02	239.48
970.32	239.33
970.61	239.57
970.91	239.05
971.20	238.76
971.49	238.62
971.79	239.14
972.08	237.29
972.38	237.62
972.67	237.76
972.96	238.05
973.26	237.57
973.55	238.33
973.85	238.14
974.14	238.24
974.43	238.10
974.73	237.76
975.02	237.57
975.31	237.29
975.61	237.33
975.90	237.14
976.19	237.00
976.49	237.00
976.78	237.19
977.07	237.29
977.37	237.29
977.66	237.57
977.95	237.33
978.24	237.38
978.54	238.43
978.83	238.05
979.12	237.95
979.42	238.10
979.71	237.29
980.00	237.71
980.29	237.71
980.59	237.48
980.88	238.33
981.17	238.29
981.46	238.33
981.76	238.24
982.05	238.95
982.34	238.95
982.63	239.19
982.93	239.14
983.22	239.81
983.51	239.95
983.80	240.48
984.09	240.76
984.39	240.52
984.68	239.43
984.97	239.86
985.26	239.38
985.55	239.33
985.85	239.05
986.14	239.24
986.43	239.05
986.72	238.90
987.01	237.90
987.30	237.71
987.59	237.95
987.89	238.14
988.18	237.38
988.47	237.57
988.76	237.14
989.05	236.90
989.34	236.71
989.63	237.33
989.92	236.90
990.22	236.67
990.51	236.86
990.80	237.19
991.09	237.00
991.38	237.33
991.67	237.38
991.96	237.00
992.25	237.10
992.54	236.67
992.83	236.90
993.12	236.90
993.41	237.14
993.70	237.81
993.99	238.19
994.28	238.48
994.58	238.43
994.87	238.43
995.16	238.43
995.45	237.71
995.74	236.67
996.03	236.90
996.32	236.95
996.61	237.43
996.90	237.38
997.19	237.57
997.48	238.00
997.77	237.57
998.06	237.95
998.34	237.67
998.63	238.10
998.92	238.24
999.21	238.76
999.50	239.05
999.79	238.67
1000.08	238.10
1000.37	237.95
1000.66	237.81
1000.95	238.14
1001.24	238.52
1001.53	239.14
1001.82	239.10
1002.11	238.52
1002.40	238.86
1002.68	239.52
1002.97	241.19
1003.26	240.62
1003.55	240.24
1003.84	240.57
1004.13	241.24
1004.42	241.19
1004.71	241.14
1004.99	240.95
1005.28	240.90
1005.57	240.48
1005.86	240.10
1006.15	240.57
1006.44	240.29
1006.72	240.48
1007.01	240.19
1007.30	240.00
1007.59	239.86
1007.88	240.19
1008.17	240.29
1008.45	239.62
1008.74	238.43
1009.03	237.33
1009.32	237.48
1009.60	237.00
1009.89	236.67
1010.18	236.14
1010.47	236.10
1010.76	236.24
1011.04	236.05
1011.33	235.86
1011.62	236.52
1011.91	236.62
1012.19	236.48
1012.48	236.76
1012.77	236.90
1013.05	238.33
1013.34	238.57
1013.63	238.33
1013.92	238.24
1014.20	238.24
1014.49	238.76
1014.78	239.00
1015.06	238.10
1015.35	238.33
1015.64	239.05
1015.92	239.43
1016.21	239.14
1016.50	239.05
1016.78	239.19
1017.07	239.29
1017.36	239.19
1017.64	238.57
1017.93	238.76
1018.22	238.67
1018.50	238.48
1018.79	238.10
1019.08	236.67
1019.36	236.81
1019.65	236.38
1019.93	237.14
1020.22	237.57
1020.51	238.43
1020.79	238.10
1021.08	237.00
1021.36	234.00
1021.65	232.00
1021.94	236.00
1022.22	242.00
1022.51	229.00
1022.79	249.00
1023.08	242.00
1023.36	264.00
1023.65	232.00
>>>>>End Processed Spectral Data<<<<<
