SpectraSuite Data File
++++++++++++++++++++++++++++++++++++
Date: Wed Nov 07 18:32:59 EST 2012
User: group
Dark Spectrum Present: No
Reference Spectrum Present: No
Number of Sampled Component Spectra: 1
Spectrometers: USB2E7196
Integration Time (usec): 1000000 (USB2E7196)
Spectra Averaged: 1 (USB2E7196)
Boxcar Smoothing: 10 (USB2E7196)
Correct for Electrical Dark: No (USB2E7196)
Strobe/Lamp Enabled: No (USB2E7196)
Correct for Detector Non-linearity: No (USB2E7196)
Correct for Stray Light: No (USB2E7196)
Number of Pixels in Processed Spectrum: 2048
>>>>>Begin Processed Spectral Data<<<<<
339.09	0.00
339.48	225.00
339.86	219.00
340.24	217.00
340.63	224.00
341.01	266.00
341.39	225.00
341.78	234.00
342.16	236.00
342.54	232.00
342.93	223.52
343.31	234.81
343.69	235.29
344.07	235.90
344.46	237.29
344.84	237.81
345.22	236.14
345.60	237.05
345.99	237.38
346.37	237.29
346.75	237.29
347.13	237.24
347.52	237.67
347.90	238.67
348.28	238.57
348.66	238.95
349.05	238.57
349.43	238.71
349.81	239.19
350.19	239.33
350.57	239.52
350.96	240.19
351.34	240.33
351.72	240.48
352.10	240.86
352.48	240.48
352.87	240.24
353.25	240.57
353.63	240.10
354.01	240.10
354.39	240.38
354.77	240.57
355.15	241.33
355.54	241.14
355.92	240.10
356.30	240.33
356.68	241.90
357.06	241.90
357.44	241.52
357.82	241.29
358.20	241.62
358.58	241.76
358.97	241.57
359.35	242.05
359.73	242.38
360.11	242.10
360.49	242.33
360.87	242.95
361.25	243.33
361.63	244.14
362.01	244.14
362.39	244.19
362.77	244.38
363.15	244.38
363.53	244.05
363.91	244.33
364.29	244.29
364.67	241.86
365.05	241.76
365.43	242.00
365.81	242.24
366.19	243.00
366.57	243.57
366.95	243.24
367.33	242.48
367.71	242.67
368.09	243.33
368.47	243.05
368.85	242.76
369.23	244.05
369.61	243.24
369.99	243.95
370.37	244.00
370.75	245.14
371.13	244.62
371.51	244.81
371.89	245.19
372.27	245.33
372.65	245.62
373.03	245.71
373.41	245.76
373.78	245.33
374.16	243.95
374.54	243.67
374.92	243.43
375.30	243.57
375.68	242.67
376.06	242.71
376.44	242.43
376.82	242.52
377.19	241.05
377.57	240.86
377.95	240.00
378.33	239.52
378.71	237.81
379.09	237.81
379.47	238.00
379.84	237.43
380.22	236.95
380.60	236.67
380.98	236.52
381.36	236.14
381.73	236.10
382.11	236.90
382.49	236.86
382.87	236.76
383.25	236.90
383.62	240.05
384.00	239.62
384.38	239.86
384.76	240.33
385.13	241.43
385.51	241.71
385.89	241.48
386.27	241.62
386.64	242.10
387.02	241.90
387.40	241.86
387.78	242.24
388.15	242.67
388.53	242.38
388.91	242.33
389.29	242.33
389.66	242.67
390.04	241.95
390.42	242.29
390.79	242.48
391.17	242.48
391.55	239.81
391.92	239.29
392.30	239.62
392.68	239.24
393.05	239.05
393.43	238.81
393.81	238.95
394.18	238.71
394.56	238.95
394.94	239.81
395.31	239.38
395.69	239.76
396.06	240.14
396.44	240.52
396.82	240.67
397.19	242.24
397.57	242.14
397.95	243.00
398.32	242.05
398.70	242.33
399.07	243.05
399.45	242.90
399.82	243.57
400.20	243.43
400.58	243.24
400.95	242.38
401.33	243.19
401.70	245.00
402.08	245.57
402.45	245.71
402.83	245.90
403.20	246.38
403.58	246.33
403.95	246.81
404.33	247.14
404.71	247.24
405.08	248.52
405.46	248.90
405.83	248.76
406.21	249.00
406.58	249.33
406.96	249.19
407.33	249.62
407.70	250.43
408.08	253.05
408.45	254.10
408.83	255.24
409.20	255.81
409.58	255.05
409.95	256.33
410.33	257.62
410.70	257.90
411.08	259.19
411.45	260.71
411.82	261.29
412.20	262.90
412.57	265.57
412.95	264.90
413.32	266.71
413.69	268.43
414.07	270.62
414.44	272.43
414.82	274.57
415.19	277.29
415.56	279.14
415.94	279.67
416.31	282.38
416.68	285.38
417.06	289.05
417.43	293.14
417.81	296.52
418.18	299.71
418.55	303.90
418.93	307.95
419.30	312.14
419.67	317.00
420.04	321.76
420.42	326.43
420.79	333.90
421.16	339.62
421.54	347.14
421.91	353.52
422.28	359.86
422.66	366.19
423.03	374.62
423.40	381.86
423.77	389.24
424.15	396.43
424.52	404.48
424.89	412.81
425.26	420.52
425.64	428.38
426.01	436.52
426.38	445.29
426.75	455.29
427.13	464.67
427.50	474.33
427.87	483.95
428.24	493.24
428.61	501.81
428.99	513.52
429.36	523.71
429.73	534.90
430.10	546.33
430.47	558.38
430.85	569.14
431.22	581.57
431.59	597.43
431.96	610.71
432.33	624.86
432.70	638.57
433.08	654.86
433.45	670.19
433.82	686.19
434.19	704.00
434.56	719.38
434.93	734.33
435.30	749.95
435.68	766.95
436.05	784.48
436.42	799.86
436.79	815.33
437.16	832.48
437.53	849.48
437.90	866.67
438.27	883.76
438.64	900.14
439.01	916.29
439.38	928.10
439.75	941.38
440.13	956.24
440.50	969.67
440.87	981.52
441.24	992.86
441.61	1005.71
441.98	1013.86
442.35	1025.19
442.72	1036.90
443.09	1048.43
443.46	1055.38
443.83	1058.19
444.20	1062.48
444.57	1066.43
444.94	1067.14
445.31	1068.76
445.68	1073.24
446.05	1072.86
446.42	1070.43
446.79	1067.43
447.16	1064.24
447.53	1061.38
447.90	1053.67
448.27	1046.71
448.64	1035.95
449.01	1027.81
449.37	1015.57
449.74	1003.29
450.11	991.29
450.48	975.81
450.85	959.19
451.22	945.38
451.59	933.52
451.96	920.48
452.33	904.62
452.70	890.29
453.07	873.76
453.43	853.76
453.80	837.57
454.17	820.76
454.54	805.38
454.91	789.33
455.28	774.05
455.65	759.24
456.02	748.67
456.38	736.24
456.75	722.19
457.12	709.24
457.49	697.29
457.86	683.38
458.23	672.95
458.59	661.52
458.96	650.19
459.33	639.76
459.70	630.29
460.07	622.00
460.43	612.43
460.80	604.14
461.17	595.86
461.54	587.95
461.91	581.33
462.27	573.90
462.64	567.10
463.01	559.86
463.38	554.52
463.74	543.81
464.11	537.52
464.48	532.19
464.85	526.38
465.21	522.81
465.58	518.00
465.95	512.67
466.32	508.33
466.68	503.57
467.05	498.90
467.42	494.62
467.78	490.24
468.15	486.14
468.52	482.86
468.88	479.33
469.25	474.57
469.62	472.05
469.98	468.43
470.35	465.14
470.72	462.33
471.08	457.48
471.45	454.95
471.82	453.10
472.18	450.52
472.55	448.52
472.92	445.19
473.28	442.67
473.65	440.33
474.02	438.19
474.38	436.05
474.75	434.62
475.11	431.76
475.48	429.86
475.85	428.14
476.21	425.95
476.58	424.00
476.94	423.33
477.31	421.81
477.67	420.90
478.04	420.52
478.41	419.57
478.77	421.86
479.14	420.33
479.50	419.43
479.87	419.10
480.23	419.10
480.60	418.86
480.96	419.19
481.33	420.29
481.69	420.48
482.06	421.48
482.42	422.29
482.79	424.10
483.15	424.76
483.52	426.19
483.88	427.38
484.25	428.81
484.61	430.00
484.98	430.62
485.34	432.71
485.71	434.24
486.07	435.81
486.44	434.57
486.80	436.52
487.17	438.00
487.53	440.05
487.90	441.57
488.26	444.00
488.62	445.76
488.99	447.00
489.35	449.19
489.72	450.67
490.08	452.19
490.44	453.43
490.81	455.90
491.17	458.14
491.54	460.38
491.90	462.81
492.26	465.43
492.63	468.05
492.99	470.14
493.36	472.67
493.72	475.48
494.08	478.57
494.45	481.90
494.81	485.52
495.17	488.38
495.54	491.86
495.90	494.76
496.26	498.10
496.63	501.57
496.99	504.95
497.35	508.57
497.72	512.76
498.08	517.43
498.44	521.14
498.80	525.86
499.17	529.71
499.53	534.29
499.89	538.76
500.26	543.14
500.62	547.76
500.98	552.86
501.34	558.14
501.71	563.95
502.07	568.62
502.43	573.38
502.79	577.62
503.16	582.76
503.52	587.71
503.88	592.14
504.24	597.81
504.60	603.48
504.97	609.67
505.33	614.52
505.69	619.67
506.05	625.57
506.41	630.10
506.78	635.76
507.14	640.33
507.50	645.29
507.86	651.71
508.22	657.48
508.59	662.00
508.95	666.95
509.31	672.76
509.67	677.81
510.03	682.14
510.39	687.43
510.75	692.19
511.12	697.29
511.48	703.14
511.84	707.43
512.20	711.67
512.56	715.19
512.92	721.00
513.28	726.33
513.64	730.62
514.00	735.33
514.37	740.38
514.73	745.52
515.09	750.38
515.45	753.52
515.81	757.33
516.17	761.86
516.53	765.81
516.89	768.62
517.25	773.76
517.61	779.67
517.97	784.24
518.33	788.95
518.69	792.38
519.05	796.86
519.41	801.00
519.77	807.29
520.13	811.86
520.49	814.14
520.85	817.43
521.21	821.67
521.57	825.00
521.93	827.10
522.29	829.76
522.65	832.10
523.01	835.38
523.37	837.29
523.73	840.48
524.09	842.33
524.45	845.10
524.81	846.57
525.17	847.95
525.53	849.24
525.89	850.67
526.25	853.90
526.61	855.24
526.97	856.48
527.33	856.19
527.68	859.71
528.04	861.43
528.40	862.52
528.76	863.76
529.12	865.10
529.48	867.19
529.84	869.10
530.20	870.90
530.56	872.48
530.91	874.29
531.27	875.33
531.63	877.00
531.99	877.86
532.35	879.57
532.71	880.38
533.07	882.14
533.42	886.10
533.78	885.76
534.14	885.90
534.50	887.14
534.86	889.05
535.21	888.33
535.57	890.00
535.93	890.86
536.29	893.00
536.65	894.81
537.00	896.14
537.36	897.52
537.72	899.29
538.08	902.29
538.44	904.33
538.79	906.90
539.15	909.19
539.51	911.14
539.87	913.10
540.22	915.00
540.58	917.52
540.94	917.14
541.29	919.48
541.65	921.76
542.01	924.95
542.37	925.95
542.72	926.71
543.08	927.48
543.44	928.29
543.79	926.90
544.15	926.90
544.51	926.71
544.87	925.81
545.22	924.38
545.58	921.43
545.94	919.19
546.29	916.57
546.65	914.67
547.01	912.43
547.36	910.33
547.72	907.33
548.07	904.19
548.43	900.57
548.79	897.81
549.14	895.33
549.50	891.48
549.86	888.48
550.21	886.10
550.57	882.62
550.92	879.71
551.28	877.33
551.64	875.24
551.99	873.24
552.35	870.62
552.70	868.10
553.06	866.86
553.41	865.29
553.77	864.71
554.13	863.10
554.48	861.86
554.84	859.81
555.19	858.81
555.55	858.48
555.90	857.29
556.26	855.52
556.61	852.90
556.97	849.67
557.32	847.05
557.68	845.00
558.03	843.76
558.39	842.14
558.74	840.10
559.10	837.10
559.45	834.38
559.81	831.81
560.16	830.62
560.52	828.57
560.87	827.62
561.23	823.86
561.58	823.52
561.94	820.33
562.29	817.90
562.64	816.05
563.00	812.81
563.35	811.57
563.71	810.14
564.06	808.90
564.42	808.14
564.77	806.52
565.12	805.57
565.48	806.76
565.83	805.67
566.19	805.33
566.54	804.33
566.89	803.29
567.25	804.29
567.60	804.38
567.96	805.90
568.31	805.43
568.66	805.95
569.02	802.24
569.37	801.76
569.72	801.14
570.08	799.71
570.43	798.67
570.78	796.33
571.14	794.62
571.49	793.62
571.84	792.24
572.20	791.48
572.55	790.33
572.90	786.19
573.26	784.33
573.61	781.52
573.96	781.10
574.31	780.86
574.67	778.19
575.02	775.95
575.37	771.86
575.72	770.00
576.08	768.24
576.43	767.33
576.78	766.14
577.13	764.38
577.49	763.38
577.84	761.86
578.19	760.71
578.54	760.05
578.90	759.05
579.25	758.24
579.60	756.86
579.95	754.76
580.30	754.24
580.66	753.05
581.01	753.19
581.36	750.76
581.71	747.81
582.06	748.19
582.42	746.52
582.77	744.76
583.12	742.14
583.47	739.76
583.82	738.62
584.17	737.14
584.53	736.62
584.88	734.10
585.23	733.29
585.58	731.14
585.93	728.62
586.28	726.10
586.63	723.67
586.98	721.19
587.34	719.67
587.69	716.29
588.04	713.95
588.39	710.52
588.74	706.86
589.09	705.43
589.44	700.52
589.79	697.76
590.14	694.81
590.49	692.05
590.84	688.76
591.19	685.43
591.54	682.43
591.89	679.00
592.25	678.81
592.60	673.81
592.95	671.05
593.30	667.90
593.65	664.95
594.00	661.19
594.35	665.52
594.70	661.29
595.05	659.24
595.40	656.48
595.75	653.76
596.10	652.62
596.45	649.48
596.80	647.86
597.15	644.71
597.50	641.33
597.85	639.81
598.19	637.19
598.54	634.29
598.89	631.10
599.24	627.90
599.59	623.38
599.94	621.95
600.29	619.43
600.64	617.43
600.99	615.29
601.34	614.33
601.69	604.71
602.04	602.52
602.39	599.90
602.74	597.90
603.08	595.38
603.43	593.71
603.78	591.48
604.13	588.71
604.48	587.14
604.83	586.43
605.18	585.10
605.53	585.71
605.87	587.76
606.22	590.76
606.57	595.19
606.92	599.48
607.27	604.67
607.62	610.24
607.96	615.57
608.31	619.71
608.66	623.43
609.01	626.76
609.36	630.19
609.70	633.24
610.05	634.76
610.40	637.52
610.75	639.38
611.10	641.19
611.44	642.86
611.79	643.71
612.14	643.90
612.49	642.05
612.83	639.48
613.18	634.81
613.53	628.90
613.88	621.95
614.22	613.62
614.57	605.43
614.92	596.90
615.27	588.57
615.61	580.86
615.96	573.81
616.31	567.38
616.65	562.29
617.00	556.00
617.35	551.24
617.70	545.62
618.04	539.81
618.39	534.81
618.74	530.76
619.08	526.29
619.43	522.76
619.78	519.86
620.12	516.86
620.47	514.62
620.82	512.52
621.16	509.14
621.51	508.52
621.85	505.57
622.20	503.86
622.55	501.05
622.89	498.86
623.24	496.38
623.59	494.00
623.93	491.00
624.28	489.10
624.62	489.00
624.97	488.29
625.32	486.24
625.66	484.29
626.01	481.48
626.35	480.29
626.70	477.81
627.04	477.57
627.39	475.86
627.73	474.71
628.08	473.43
628.43	471.76
628.77	468.76
629.12	466.67
629.46	464.71
629.81	463.33
630.15	461.62
630.50	459.10
630.84	457.48
631.19	455.76
631.53	453.76
631.88	449.24
632.22	445.43
632.57	443.57
632.91	441.00
633.26	439.19
633.60	436.24
633.95	434.10
634.29	429.67
634.64	426.67
634.98	423.71
635.32	421.14
635.67	419.52
636.01	417.24
636.36	415.57
636.70	413.57
637.05	411.52
637.39	409.14
637.73	408.19
638.08	407.52
638.42	405.38
638.77	403.19
639.11	401.05
639.45	399.62
639.80	397.67
640.14	396.57
640.49	395.00
640.83	393.52
641.17	392.10
641.52	390.57
641.86	390.05
642.20	389.52
642.55	387.90
642.89	386.48
643.23	385.71
643.58	385.14
643.92	383.33
644.26	381.76
644.61	381.29
644.95	379.62
645.29	377.57
645.64	377.48
645.98	376.57
646.32	377.05
646.66	376.10
647.01	374.95
647.35	374.10
647.69	373.38
648.04	373.14
648.38	372.52
648.72	371.90
649.06	370.62
649.41	368.57
649.75	367.67
650.09	366.86
650.43	365.81
650.78	364.43
651.12	363.43
651.46	362.33
651.80	360.52
652.14	359.19
652.49	358.86
652.83	357.00
653.17	355.90
653.51	353.71
653.85	352.67
654.20	351.71
654.54	350.38
654.88	348.67
655.22	346.86
655.56	345.38
655.90	344.71
656.25	343.62
656.59	342.95
656.93	341.95
657.27	341.81
657.61	340.52
657.95	339.71
658.29	339.05
658.64	339.24
658.98	338.67
659.32	337.95
659.66	336.29
660.00	335.71
660.34	335.19
660.68	334.57
661.02	334.19
661.36	333.43
661.70	332.57
662.05	332.48
662.39	332.62
662.73	332.95
663.07	333.24
663.41	332.71
663.75	331.76
664.09	331.29
664.43	329.71
664.77	329.05
665.11	328.14
665.45	327.52
665.79	326.95
666.13	325.76
666.47	325.10
666.81	324.48
667.15	323.10
667.49	322.43
667.83	322.71
668.17	321.67
668.51	321.10
668.85	320.62
669.19	320.71
669.53	319.43
669.87	318.43
670.21	316.62
670.55	315.95
670.89	316.62
671.23	316.14
671.57	315.62
671.91	315.33
672.25	314.86
672.58	315.24
672.92	313.81
673.26	313.76
673.60	313.24
673.94	312.71
674.28	312.71
674.62	312.52
674.96	311.10
675.30	310.67
675.64	309.95
675.97	309.52
676.31	308.19
676.65	307.48
676.99	306.76
677.33	306.29
677.67	306.24
678.01	304.52
678.34	303.71
678.68	303.86
679.02	303.05
679.36	302.67
679.70	301.14
680.04	300.81
680.37	300.52
680.71	300.10
681.05	299.76
681.39	299.62
681.73	298.71
682.06	298.19
682.40	297.90
682.74	298.10
683.08	298.71
683.42	297.95
683.75	298.24
684.09	297.52
684.43	297.19
684.77	296.33
685.10	296.29
685.44	296.19
685.78	295.29
686.12	295.24
686.45	294.81
686.79	294.52
687.13	294.57
687.46	293.71
687.80	294.00
688.14	293.62
688.48	292.95
688.81	293.19
689.15	293.62
689.49	293.24
689.82	292.57
690.16	291.05
690.50	290.81
690.83	289.76
691.17	288.95
691.51	288.57
691.84	288.62
692.18	287.95
692.52	286.90
692.85	286.38
693.19	286.90
693.52	286.33
693.86	285.76
694.20	285.19
694.53	285.33
694.87	284.24
695.21	283.52
695.54	283.33
695.88	282.43
696.21	281.33
696.55	280.67
696.88	280.19
697.22	279.62
697.56	279.81
697.89	279.14
698.23	279.38
698.56	278.86
698.90	278.43
699.23	277.71
699.57	277.86
699.90	277.33
700.24	276.38
700.58	276.29
700.91	276.57
701.25	278.48
701.58	278.67
701.92	279.71
702.25	280.10
702.59	280.14
702.92	280.48
703.26	281.19
703.59	281.67
703.93	284.05
704.26	284.86
704.60	285.19
704.93	285.81
705.26	286.05
705.60	286.71
705.93	286.29
706.27	287.67
706.60	288.76
706.94	290.38
707.27	290.24
707.61	290.57
707.94	290.86
708.27	289.00
708.61	288.57
708.94	288.00
709.28	287.76
709.61	286.81
709.94	286.48
710.28	285.86
710.61	285.29
710.95	282.52
711.28	283.19
711.61	282.00
711.95	281.76
712.28	280.67
712.61	279.90
712.95	280.62
713.28	280.76
713.61	279.29
713.95	277.62
714.28	276.67
714.61	275.57
714.95	273.95
715.28	272.81
715.61	271.81
715.95	271.19
716.28	270.29
716.61	270.33
716.95	269.24
717.28	268.62
717.61	267.95
717.94	267.33
718.28	265.33
718.61	264.90
718.94	263.95
719.27	263.90
719.61	263.52
719.94	262.86
720.27	261.48
720.60	261.05
720.94	260.62
721.27	260.76
721.60	261.10
721.93	261.19
722.27	261.81
722.60	261.81
722.93	261.52
723.26	261.62
723.59	261.10
723.93	261.57
724.26	261.33
724.59	261.43
724.92	261.24
725.25	261.76
725.59	261.48
725.92	261.81
726.25	261.57
726.58	261.52
726.91	260.95
727.24	261.05
727.57	260.81
727.91	260.43
728.24	260.62
728.57	259.90
728.90	260.24
729.23	259.24
729.56	260.71
729.89	260.52
730.22	260.29
730.55	260.33
730.89	259.86
731.22	259.81
731.55	259.52
731.88	259.67
732.21	258.90
732.54	258.29
732.87	257.86
733.20	257.52
733.53	257.38
733.86	257.38
734.19	256.57
734.52	256.86
734.85	258.43
735.18	257.95
735.51	258.76
735.84	258.76
736.17	259.43
736.50	257.90
736.83	260.43
737.16	260.05
737.49	259.71
737.82	259.62
738.15	259.71
738.48	259.14
738.81	258.81
739.14	258.43
739.47	258.90
739.80	258.95
740.13	259.57
740.46	258.95
740.79	258.43
741.12	258.67
741.45	258.14
741.78	256.48
742.11	257.00
742.44	256.29
742.77	256.14
743.10	255.67
743.43	255.29
743.75	252.76
744.08	256.24
744.41	256.00
744.74	255.76
745.07	255.38
745.40	255.76
745.73	256.90
746.06	256.95
746.39	257.29
746.71	257.05
747.04	256.29
747.37	256.38
747.70	256.71
748.03	256.52
748.36	256.71
748.68	256.86
749.01	256.43
749.34	256.57
749.67	256.52
750.00	256.62
750.33	258.24
750.65	258.48
750.98	255.14
751.31	255.48
751.64	255.67
751.97	256.95
752.29	256.95
752.62	255.48
752.95	255.38
753.28	254.81
753.60	254.62
753.93	255.14
754.26	255.05
754.59	254.57
754.91	254.24
755.24	254.00
755.57	254.05
755.90	253.38
756.22	253.10
756.55	252.81
756.88	252.33
757.20	250.86
757.53	249.67
757.86	249.43
758.19	249.33
758.51	249.14
758.84	247.86
759.17	247.67
759.49	248.10
759.82	249.05
760.15	249.10
760.47	249.24
760.80	248.67
761.13	248.90
761.45	248.57
761.78	248.48
762.11	248.62
762.43	248.29
762.76	248.38
763.08	248.24
763.41	248.24
763.74	248.24
764.06	248.10
764.39	248.38
764.71	248.71
765.04	248.33
765.37	248.14
765.69	248.10
766.02	248.10
766.34	247.86
766.67	246.95
767.00	247.48
767.32	248.81
767.65	250.14
767.97	250.24
768.30	250.48
768.62	250.62
768.95	250.33
769.27	249.90
769.60	250.52
769.92	250.24
770.25	249.90
770.57	249.48
770.90	249.52
771.22	249.24
771.55	249.24
771.87	249.43
772.20	249.05
772.52	251.14
772.85	254.00
773.17	254.00
773.50	254.00
773.82	253.67
774.15	252.48
774.47	250.76
774.80	250.24
775.12	250.29
775.45	250.14
775.77	250.19
776.09	250.33
776.42	249.76
776.74	250.67
777.07	250.33
777.39	250.38
777.72	249.71
778.04	250.29
778.36	249.57
778.69	249.62
779.01	250.00
779.33	247.62
779.66	244.62
779.98	244.43
780.31	244.38
780.63	245.33
780.95	245.48
781.28	245.43
781.60	245.38
781.92	245.19
782.25	245.05
782.57	244.62
782.89	244.76
783.22	245.05
783.54	244.24
783.86	244.10
784.19	243.95
784.51	244.90
784.83	244.52
785.16	244.62
785.48	244.52
785.80	244.43
786.12	244.52
786.45	244.43
786.77	244.62
787.09	244.57
787.42	243.33
787.74	243.19
788.06	243.52
788.38	243.33
788.71	243.10
789.03	243.62
789.35	244.48
789.67	244.33
789.99	244.29
790.32	244.10
790.64	244.48
790.96	246.57
791.28	245.86
791.61	245.62
791.93	245.90
792.25	245.57
792.57	247.19
792.89	246.86
793.21	247.10
793.54	246.76
793.86	246.33
794.18	246.67
794.50	246.05
794.82	246.10
795.14	246.71
795.47	247.38
795.79	247.29
796.11	246.62
796.43	246.29
796.75	246.10
797.07	246.14
797.39	246.19
797.71	244.57
798.04	244.67
798.36	244.71
798.68	244.71
799.00	245.43
799.32	244.33
799.64	244.90
799.96	244.71
800.28	245.52
800.60	245.52
800.92	245.86
801.24	246.05
801.56	246.19
801.89	245.76
802.21	245.71
802.53	245.14
802.85	245.76
803.17	247.00
803.49	246.67
803.81	246.62
804.13	246.52
804.45	245.95
804.77	246.33
805.09	246.29
805.41	246.00
805.73	245.43
806.05	245.00
806.37	244.90
806.69	245.10
807.01	244.48
807.33	244.62
807.65	243.62
807.97	244.76
808.28	244.48
808.60	244.48
808.92	244.24
809.24	246.10
809.56	245.71
809.88	245.10
810.20	244.90
810.52	245.48
810.84	245.24
811.16	245.43
811.48	244.90
811.80	245.95
812.12	246.05
812.43	246.24
812.75	246.43
813.07	245.86
813.39	245.52
813.71	245.48
814.03	245.19
814.35	245.33
814.67	244.48
814.98	244.00
815.30	243.95
815.62	243.57
815.94	241.67
816.26	242.76
816.58	242.10
816.89	242.29
817.21	241.76
817.53	242.00
817.85	242.10
818.17	242.19
818.48	241.19
818.80	241.43
819.12	241.33
819.44	240.76
819.76	240.52
820.07	240.62
820.39	240.52
820.71	240.90
821.03	241.10
821.34	240.48
821.66	240.90
821.98	241.10
822.30	240.86
822.61	242.52
822.93	241.19
823.25	241.38
823.57	241.52
823.88	242.10
824.20	241.90
824.52	241.95
824.83	242.14
825.15	241.95
825.47	242.10
825.79	242.14
826.10	242.19
826.42	242.29
826.74	242.48
827.05	242.57
827.37	242.52
827.69	242.19
828.00	242.71
828.32	243.19
828.64	242.76
828.95	244.38
829.27	243.33
829.58	243.14
829.90	243.57
830.22	243.67
830.53	242.81
830.85	242.71
831.17	242.43
831.48	242.43
831.80	242.52
832.11	242.10
832.43	241.67
832.75	241.38
833.06	242.62
833.38	242.05
833.69	241.48
834.01	241.71
834.32	241.57
834.64	241.00
834.96	240.71
835.27	240.76
835.59	239.90
835.90	239.24
836.22	239.48
836.53	238.71
836.85	238.57
837.16	241.24
837.48	241.48
837.79	242.38
838.11	242.00
838.42	242.29
838.74	242.81
839.05	242.90
839.37	242.95
839.68	241.71
840.00	241.81
840.31	242.48
840.63	242.29
840.94	242.19
841.26	242.05
841.57	242.10
841.88	242.33
842.20	241.86
842.51	242.33
842.83	242.24
843.14	244.38
843.46	244.52
843.77	243.10
844.08	242.62
844.40	241.86
844.71	241.90
845.03	241.57
845.34	241.00
845.65	240.57
845.97	240.81
846.28	241.05
846.60	241.29
846.91	240.67
847.22	240.67
847.54	241.00
847.85	241.43
848.16	241.43
848.48	241.19
848.79	242.05
849.10	242.10
849.42	242.43
849.73	240.48
850.04	239.90
850.36	239.10
850.67	239.67
850.98	239.48
851.30	239.81
851.61	239.62
851.92	240.00
852.23	241.14
852.55	241.24
852.86	241.10
853.17	241.14
853.49	242.19
853.80	242.52
854.11	242.76
854.42	243.19
854.74	242.81
855.05	242.86
855.36	241.95
855.67	241.86
855.99	241.43
856.30	244.05
856.61	244.05
856.92	243.86
857.23	243.90
857.55	243.86
857.86	243.48
858.17	244.10
858.48	243.43
858.79	242.86
859.11	243.33
859.42	243.48
859.73	243.05
860.04	242.52
860.35	241.95
860.66	241.24
860.98	240.86
861.29	240.86
861.60	240.57
861.91	241.00
862.22	240.76
862.53	240.57
862.84	237.86
863.16	239.14
863.47	238.76
863.78	238.29
864.09	238.81
864.40	239.19
864.71	238.76
865.02	239.24
865.33	239.00
865.64	238.24
865.95	238.00
866.27	239.67
866.58	239.48
866.89	239.67
867.20	239.43
867.51	239.14
867.82	239.43
868.13	240.14
868.44	239.76
868.75	240.14
869.06	240.48
869.37	240.95
869.68	239.57
869.99	240.29
870.30	240.38
870.61	240.14
870.92	239.76
871.23	239.81
871.54	240.24
871.85	240.62
872.16	240.86
872.47	240.48
872.78	239.14
873.09	239.33
873.40	239.00
873.71	239.62
874.02	239.71
874.33	238.95
874.64	238.38
874.95	238.67
875.26	238.14
875.56	237.90
875.87	237.76
876.18	237.86
876.49	239.86
876.80	239.67
877.11	239.19
877.42	239.43
877.73	239.52
878.04	238.67
878.35	238.67
878.66	238.90
878.96	239.19
879.27	238.71
879.58	238.81
879.89	238.57
880.20	238.95
880.51	239.00
880.82	239.24
881.12	239.71
881.43	238.95
881.74	238.76
882.05	238.81
882.36	238.76
882.67	239.00
882.97	236.76
883.28	236.95
883.59	237.00
883.90	237.14
884.21	237.43
884.51	237.62
884.82	237.43
885.13	237.38
885.44	237.52
885.74	237.81
886.05	237.86
886.36	237.86
886.67	237.38
886.98	238.38
887.28	238.76
887.59	238.33
887.90	238.76
888.20	238.62
888.51	238.90
888.82	238.57
889.13	238.62
889.43	240.52
889.74	240.38
890.05	240.33
890.35	239.90
890.66	239.52
890.97	239.48
891.28	239.19
891.58	239.38
891.89	239.14
892.20	239.00
892.50	238.62
892.81	238.95
893.12	239.05
893.42	237.95
893.73	237.95
894.04	238.29
894.34	238.62
894.65	238.48
894.95	238.29
895.26	238.52
895.57	239.52
895.87	237.29
896.18	237.57
896.48	237.76
896.79	237.86
897.10	238.38
897.40	238.33
897.71	238.86
898.01	238.52
898.32	238.86
898.63	238.62
898.93	238.90
899.24	238.76
899.54	238.52
899.85	238.43
900.15	238.24
900.46	238.05
900.76	238.10
901.07	238.29
901.38	238.43
901.68	238.48
901.99	237.57
902.29	237.95
902.60	237.86
902.90	237.76
903.21	237.57
903.51	237.29
903.82	237.90
904.12	237.86
904.43	237.90
904.73	237.38
905.03	237.71
905.34	239.71
905.64	239.62
905.95	239.62
906.25	239.81
906.56	239.62
906.86	239.52
907.17	239.24
907.47	239.48
907.77	239.19
908.08	238.95
908.38	238.86
908.69	238.95
908.99	239.29
909.30	239.52
909.60	239.95
909.90	239.95
910.21	238.86
910.51	238.43
910.81	238.33
911.12	239.62
911.42	239.67
911.73	237.33
912.03	237.43
912.33	238.05
912.64	237.95
912.94	237.81
913.24	237.52
913.55	237.24
913.85	237.24
914.15	237.76
914.46	238.05
914.76	237.76
915.06	237.62
915.37	237.14
915.67	236.95
915.97	236.86
916.27	236.38
916.58	236.76
916.88	236.95
917.18	237.05
917.49	238.05
917.79	238.00
918.09	238.05
918.39	239.05
918.70	238.71
919.00	238.71
919.30	239.76
919.60	239.43
919.91	239.33
920.21	239.24
920.51	238.76
920.81	238.57
921.12	239.00
921.42	238.90
921.72	238.95
922.02	239.10
922.32	239.29
922.63	239.38
922.93	240.62
923.23	240.57
923.53	240.29
923.83	238.67
924.13	238.62
924.44	238.67
924.74	238.86
925.04	239.48
925.34	239.33
925.64	238.67
925.94	239.14
926.24	240.81
926.55	240.57
926.85	240.71
927.15	240.95
927.45	241.10
927.75	241.10
928.05	241.10
928.35	240.81
928.65	241.19
928.95	241.29
929.26	240.38
929.56	240.71
929.86	241.10
930.16	240.81
930.46	240.90
930.76	241.19
931.06	239.86
931.36	239.24
931.66	239.62
931.96	239.90
932.26	239.90
932.56	238.48
932.86	239.14
933.16	239.43
933.46	239.19
933.76	238.71
934.06	239.33
934.36	240.57
934.66	240.24
934.96	240.10
935.26	240.33
935.56	240.52
935.86	240.00
936.16	239.38
936.46	239.33
936.76	239.14
937.06	238.81
937.36	238.95
937.66	238.81
937.96	239.00
938.26	238.62
938.56	238.62
938.86	238.95
939.16	239.29
939.46	239.33
939.76	239.24
940.06	239.43
940.35	238.71
940.65	237.24
940.95	237.71
941.25	236.95
941.55	236.86
941.85	237.00
942.15	237.48
942.45	238.29
942.75	238.05
943.04	238.43
943.34	238.86
943.64	238.76
943.94	238.57
944.24	238.29
944.54	238.38
944.84	238.19
945.13	237.90
945.43	237.33
945.73	237.14
946.03	237.00
946.33	236.62
946.62	236.67
946.92	236.48
947.22	236.57
947.52	236.71
947.82	237.00
948.11	236.76
948.41	236.19
948.71	235.76
949.01	236.14
949.31	236.05
949.60	236.05
949.90	236.67
950.20	236.48
950.50	236.38
950.79	236.24
951.09	236.81
951.39	236.90
951.69	236.67
951.98	237.19
952.28	237.43
952.58	237.67
952.87	237.57
953.17	238.29
953.47	238.24
953.76	238.48
954.06	237.95
954.36	237.67
954.66	237.76
954.95	238.05
955.25	238.14
955.55	238.00
955.84	237.57
956.14	237.67
956.44	238.19
956.73	238.05
957.03	238.48
957.32	238.29
957.62	238.05
957.92	238.71
958.21	238.62
958.51	241.43
958.81	241.43
959.10	241.67
959.40	242.14
959.69	242.48
959.99	242.90
960.29	243.05
960.58	242.67
960.88	243.86
961.17	243.71
961.47	244.10
961.76	244.00
962.06	244.62
962.36	244.24
962.65	244.43
962.95	244.38
963.24	243.67
963.54	243.62
963.83	243.76
964.13	243.43
964.42	242.67
964.72	240.62
965.01	240.81
965.31	240.48
965.60	239.76
965.90	241.00
966.19	240.14
966.49	240.19
966.78	240.43
967.08	240.29
967.37	240.38
967.67	239.81
967.96	240.14
968.26	240.14
968.55	240.62
968.85	240.24
969.14	240.33
969.43	240.62
969.73	240.62
970.02	240.57
970.32	240.62
970.61	240.57
970.91	239.62
971.20	239.38
971.49	239.62
971.79	240.10
972.08	238.29
972.38	238.76
972.67	238.71
972.96	239.00
973.26	238.14
973.55	239.14
973.85	238.86
974.14	238.95
974.43	238.62
974.73	237.86
975.02	237.86
975.31	237.95
975.61	237.81
975.90	237.86
976.19	237.57
976.49	237.86
976.78	238.10
977.07	238.38
977.37	238.57
977.66	238.71
977.95	238.24
978.24	238.19
978.54	238.38
978.83	238.00
979.12	237.90
979.42	238.00
979.71	237.24
980.00	237.05
980.29	236.71
980.59	236.24
980.88	237.10
981.17	237.00
981.46	237.19
981.76	237.29
982.05	237.95
982.34	238.43
982.63	238.33
982.93	238.19
983.22	238.52
983.51	238.71
983.80	239.10
984.09	239.24
984.39	239.57
984.68	239.38
984.97	240.00
985.26	240.10
985.55	240.14
985.85	239.76
986.14	240.62
986.43	241.05
986.72	241.10
987.01	240.38
987.30	240.57
987.59	240.19
987.89	240.14
988.18	239.24
988.47	239.00
988.76	238.62
989.05	238.57
989.34	238.38
989.63	238.95
989.92	238.38
990.22	238.38
990.51	238.38
990.80	238.38
991.09	238.43
991.38	238.62
991.67	238.86
991.96	238.81
992.25	238.90
992.54	238.71
992.83	239.00
993.12	238.95
993.41	239.00
993.70	240.29
993.99	241.00
994.28	241.52
994.58	241.62
994.87	241.57
995.16	241.76
995.45	241.76
995.74	240.95
996.03	241.57
996.32	241.95
996.61	242.29
996.90	242.38
997.19	242.29
997.48	242.10
997.77	241.29
998.06	241.05
998.34	240.81
998.63	240.86
998.92	240.86
999.21	241.81
999.50	241.90
999.79	241.00
1000.08	240.81
1000.37	240.81
1000.66	240.76
1000.95	241.48
1001.24	241.52
1001.53	241.62
1001.82	241.43
1002.11	240.76
1002.40	241.29
1002.68	242.05
1002.97	243.57
1003.26	243.29
1003.55	243.10
1003.84	243.43
1004.13	244.76
1004.42	244.43
1004.71	244.33
1004.99	244.00
1005.28	243.71
1005.57	243.62
1005.86	243.33
1006.15	242.86
1006.44	242.14
1006.72	242.38
1007.01	241.71
1007.30	241.71
1007.59	241.62
1007.88	241.38
1008.17	241.43
1008.45	240.29
1008.74	238.76
1009.03	237.67
1009.32	237.62
1009.60	237.24
1009.89	237.14
1010.18	235.62
1010.47	235.62
1010.76	235.19
1011.04	235.38
1011.33	235.05
1011.62	235.43
1011.91	235.62
1012.19	235.81
1012.48	235.90
1012.77	235.81
1013.05	237.10
1013.34	237.05
1013.63	236.90
1013.92	237.05
1014.20	237.05
1014.49	237.38
1014.78	237.86
1015.06	236.90
1015.35	236.67
1015.64	237.19
1015.92	237.48
1016.21	238.00
1016.50	237.86
1016.78	238.43
1017.07	238.48
1017.36	238.19
1017.64	237.52
1017.93	237.71
1018.22	237.62
1018.50	237.86
1018.79	237.57
1019.08	236.00
1019.36	236.38
1019.65	236.14
1019.93	236.90
1020.22	237.14
1020.51	238.29
1020.79	238.14
1021.08	236.00
1021.36	236.00
1021.65	233.00
1021.94	231.00
1022.22	246.00
1022.51	233.00
1022.79	248.00
1023.08	241.00
1023.36	266.00
1023.65	234.00
>>>>>End Processed Spectral Data<<<<<
