SpectraSuite Data File
++++++++++++++++++++++++++++++++++++
Date: Wed Nov 07 18:32:29 EST 2012
User: group
Dark Spectrum Present: No
Reference Spectrum Present: No
Number of Sampled Component Spectra: 1
Spectrometers: USB2E7196
Integration Time (usec): 1000000 (USB2E7196)
Spectra Averaged: 1 (USB2E7196)
Boxcar Smoothing: 10 (USB2E7196)
Correct for Electrical Dark: No (USB2E7196)
Strobe/Lamp Enabled: No (USB2E7196)
Correct for Detector Non-linearity: No (USB2E7196)
Correct for Stray Light: No (USB2E7196)
Number of Pixels in Processed Spectrum: 2048
>>>>>Begin Processed Spectral Data<<<<<
339.09	0.00
339.48	223.00
339.86	228.00
340.24	219.00
340.63	227.00
341.01	259.00
341.39	227.00
341.78	241.00
342.16	245.00
342.54	230.00
342.93	224.52
343.31	235.81
343.69	236.48
344.07	236.57
344.46	237.81
344.84	238.33
345.22	237.29
345.60	238.05
345.99	237.57
346.37	237.33
346.75	237.29
347.13	237.29
347.52	237.43
347.90	238.00
348.28	238.05
348.66	238.43
349.05	237.86
349.43	238.43
349.81	238.57
350.19	238.57
350.57	238.90
350.96	239.19
351.34	239.19
351.72	238.86
352.10	239.10
352.48	238.43
352.87	238.38
353.25	238.19
353.63	237.43
354.01	237.71
354.39	237.71
354.77	237.86
355.15	238.24
355.54	237.95
355.92	237.33
356.30	237.19
356.68	238.90
357.06	238.71
357.44	237.86
357.82	237.52
358.20	237.71
358.58	237.57
358.97	237.33
359.35	237.71
359.73	238.14
360.11	237.90
360.49	238.38
360.87	238.33
361.25	238.67
361.63	239.71
362.01	239.71
362.39	239.33
362.77	239.67
363.15	239.48
363.53	239.19
363.91	239.33
364.29	239.52
364.67	237.10
365.05	237.14
365.43	237.43
365.81	237.76
366.19	238.52
366.57	239.29
366.95	239.48
367.33	238.62
367.71	238.81
368.09	239.38
368.47	239.00
368.85	238.81
369.23	239.00
369.61	238.48
369.99	239.19
370.37	239.52
370.75	240.48
371.13	240.19
371.51	240.05
371.89	240.33
372.27	240.29
372.65	240.48
373.03	240.57
373.41	240.33
373.78	240.38
374.16	239.24
374.54	238.33
374.92	238.19
375.30	238.57
375.68	237.76
376.06	237.95
376.44	237.86
376.82	238.00
377.19	238.05
377.57	237.71
377.95	237.00
378.33	237.05
378.71	235.52
379.09	235.33
379.47	235.71
379.84	235.43
380.22	235.33
380.60	234.95
380.98	234.57
381.36	234.67
381.73	234.29
382.11	235.05
382.49	235.43
382.87	235.43
383.25	235.71
383.62	239.10
384.00	238.57
384.38	238.67
384.76	239.57
385.13	240.48
385.51	240.62
385.89	240.38
386.27	240.38
386.64	241.14
387.02	241.33
387.40	240.90
387.78	241.19
388.15	241.43
388.53	241.29
388.91	241.24
389.29	241.19
389.66	241.81
390.04	241.10
390.42	241.71
390.79	241.52
391.17	241.43
391.55	238.33
391.92	238.43
392.30	238.57
392.68	237.76
393.05	237.67
393.43	237.81
393.81	238.00
394.18	237.62
394.56	237.71
394.94	238.19
395.31	238.76
395.69	239.24
396.06	239.67
396.44	240.48
396.82	240.52
397.19	242.00
397.57	241.81
397.95	242.33
398.32	241.10
398.70	241.57
399.07	241.86
399.45	242.29
399.82	242.52
400.20	242.52
400.58	242.38
400.95	241.43
401.33	242.00
401.70	243.71
402.08	244.10
402.45	243.81
402.83	244.48
403.20	244.57
403.58	244.48
403.95	245.00
404.33	245.33
404.71	246.14
405.08	247.33
405.46	247.62
405.83	248.05
406.21	249.00
406.58	249.33
406.96	249.76
407.33	250.24
407.70	250.81
408.08	253.48
408.45	254.67
408.83	255.86
409.20	256.24
409.58	255.67
409.95	256.90
410.33	258.24
410.70	258.62
411.08	260.05
411.45	261.19
411.82	261.71
412.20	263.14
412.57	265.29
412.95	264.90
413.32	266.86
413.69	268.52
414.07	270.00
414.44	271.95
414.82	274.29
415.19	277.00
415.56	279.52
415.94	280.43
416.31	283.48
416.68	286.05
417.06	289.38
417.43	293.33
417.81	296.57
418.18	300.10
418.55	303.86
418.93	307.90
419.30	311.90
419.67	316.67
420.04	321.00
420.42	325.38
420.79	333.38
421.16	339.33
421.54	346.24
421.91	352.86
422.28	359.33
422.66	366.29
423.03	374.81
423.40	381.81
423.77	388.76
424.15	395.71
424.52	403.38
424.89	411.95
425.26	419.57
425.64	426.86
426.01	435.29
426.38	443.76
426.75	453.29
427.13	463.10
427.50	472.71
427.87	483.10
428.24	493.24
428.61	500.24
428.99	511.33
429.36	521.76
429.73	533.00
430.10	544.81
430.47	556.43
430.85	565.90
431.22	578.95
431.59	594.90
431.96	608.29
432.33	623.29
432.70	637.86
433.08	653.71
433.45	669.67
433.82	684.90
434.19	702.48
434.56	717.71
434.93	733.00
435.30	748.48
435.68	765.86
436.05	782.62
436.42	799.43
436.79	815.19
437.16	831.33
437.53	847.95
437.90	864.38
438.27	881.24
438.64	898.48
439.01	914.00
439.38	926.48
439.75	939.71
440.13	954.90
440.50	968.67
440.87	980.10
441.24	991.90
441.61	1004.67
441.98	1014.24
442.35	1025.76
442.72	1037.48
443.09	1050.00
443.46	1055.67
443.83	1059.38
444.20	1061.81
444.57	1065.00
444.94	1066.62
445.31	1069.62
445.68	1074.33
446.05	1073.38
446.42	1070.90
446.79	1067.90
447.16	1063.95
447.53	1060.86
447.90	1052.86
448.27	1044.71
448.64	1035.24
449.01	1027.33
449.37	1015.48
449.74	1003.10
450.11	991.24
450.48	975.19
450.85	957.05
451.22	943.67
451.59	931.00
451.96	919.90
452.33	905.00
452.70	891.33
453.07	873.33
453.43	852.76
453.80	836.62
454.17	820.86
454.54	804.95
454.91	789.00
455.28	773.57
455.65	758.76
456.02	748.81
456.38	736.24
456.75	721.86
457.12	708.81
457.49	696.48
457.86	682.95
458.23	673.57
458.59	663.19
458.96	651.33
459.33	641.38
459.70	631.43
460.07	623.10
460.43	613.05
460.80	605.00
461.17	596.95
461.54	589.29
461.91	581.76
462.27	574.67
462.64	568.29
463.01	561.52
463.38	556.00
463.74	544.67
464.11	538.24
464.48	532.76
464.85	527.52
465.21	523.76
465.58	518.95
465.95	512.67
466.32	508.43
466.68	504.19
467.05	499.38
467.42	495.10
467.78	490.38
468.15	486.10
468.52	483.43
468.88	479.57
469.25	475.52
469.62	472.33
469.98	468.71
470.35	465.62
470.72	462.57
471.08	458.24
471.45	455.81
471.82	453.81
472.18	450.57
472.55	448.05
472.92	444.62
473.28	441.48
473.65	439.29
474.02	436.52
474.38	434.67
474.75	433.14
475.11	430.57
475.48	428.57
475.85	427.38
476.21	424.81
476.58	424.05
476.94	422.57
477.31	421.29
477.67	420.10
478.04	418.90
478.41	418.71
478.77	420.52
479.14	419.29
479.50	418.81
479.87	418.67
480.23	418.52
480.60	417.71
480.96	418.00
481.33	418.76
481.69	419.48
482.06	420.43
482.42	421.62
482.79	422.95
483.15	423.76
483.52	425.24
483.88	426.43
484.25	427.43
484.61	429.00
484.98	430.52
485.34	432.48
485.71	434.24
486.07	435.14
486.44	434.62
486.80	436.43
487.17	437.62
487.53	439.76
487.90	441.62
488.26	445.00
488.62	447.33
488.99	448.57
489.35	450.81
489.72	452.10
490.08	453.43
490.44	454.95
490.81	457.52
491.17	459.43
491.54	461.48
491.90	463.90
492.26	465.81
492.63	467.90
492.99	470.19
493.36	472.71
493.72	475.62
494.08	477.95
494.45	480.90
494.81	484.29
495.17	487.05
495.54	490.57
495.90	493.00
496.26	496.76
496.63	501.33
496.99	504.33
497.35	508.24
497.72	512.19
498.08	516.38
498.44	520.76
498.80	525.14
499.17	529.14
499.53	533.62
499.89	538.48
500.26	543.00
500.62	547.90
500.98	552.57
501.34	557.19
501.71	562.81
502.07	567.71
502.43	572.57
502.79	577.71
503.16	583.00
503.52	588.24
503.88	592.57
504.24	596.71
504.60	601.71
504.97	607.43
505.33	612.38
505.69	618.05
506.05	622.19
506.41	626.62
506.78	631.95
507.14	636.71
507.50	642.71
507.86	648.48
508.22	653.81
508.59	658.81
508.95	663.90
509.31	670.19
509.67	676.05
510.03	680.95
510.39	686.24
510.75	691.86
511.12	697.05
511.48	702.33
511.84	707.29
512.20	711.95
512.56	716.76
512.92	721.90
513.28	726.48
513.64	732.29
514.00	737.19
514.37	742.00
514.73	746.76
515.09	750.38
515.45	753.90
515.81	758.14
516.17	762.67
516.53	767.10
516.89	769.71
517.25	773.43
517.61	778.76
517.97	782.95
518.33	785.48
518.69	789.48
519.05	792.71
519.41	796.52
519.77	802.10
520.13	805.62
520.49	809.05
520.85	812.05
521.21	815.95
521.57	819.57
521.93	822.90
522.29	826.19
522.65	828.67
523.01	831.52
523.37	834.00
523.73	836.67
524.09	839.24
524.45	840.95
524.81	842.90
525.17	844.14
525.53	845.95
525.89	848.62
526.25	849.95
526.61	852.86
526.97	854.76
527.33	855.14
527.68	858.62
528.04	859.76
528.40	860.67
528.76	861.24
529.12	862.95
529.48	864.14
529.84	864.81
530.20	866.71
530.56	869.14
530.91	870.38
531.27	871.71
531.63	873.24
531.99	874.95
532.35	876.29
532.71	876.90
533.07	877.81
533.42	881.24
533.78	882.24
534.14	883.10
534.50	883.57
534.86	885.48
535.21	884.24
535.57	886.29
535.93	887.57
536.29	890.38
536.65	891.95
537.00	893.43
537.36	894.90
537.72	896.43
538.08	898.62
538.44	900.19
538.79	902.86
539.15	903.67
539.51	906.76
539.87	909.43
540.22	912.00
540.58	914.76
540.94	914.33
541.29	916.29
541.65	917.67
542.01	920.95
542.37	922.10
542.72	922.81
543.08	922.76
543.44	923.86
543.79	922.33
544.15	922.33
544.51	922.10
544.87	921.57
545.22	920.33
545.58	919.05
545.94	916.67
546.29	914.10
546.65	912.76
547.01	909.14
547.36	906.24
547.72	903.33
548.07	900.24
548.43	896.52
548.79	893.52
549.14	889.67
549.50	886.38
549.86	882.38
550.21	880.14
550.57	878.00
550.92	874.81
551.28	872.95
551.64	869.81
551.99	867.81
552.35	865.24
552.70	862.90
553.06	860.24
553.41	859.10
553.77	858.00
554.13	855.95
554.48	854.33
554.84	852.24
555.19	850.14
555.55	850.33
555.90	849.48
556.26	847.05
556.61	845.62
556.97	843.05
557.32	841.76
557.68	840.14
558.03	837.33
558.39	835.19
558.74	833.14
559.10	831.43
559.45	829.33
559.81	828.33
560.16	826.90
560.52	824.48
560.87	822.48
561.23	819.81
561.58	819.76
561.94	818.00
562.29	816.29
562.64	815.24
563.00	811.10
563.35	809.05
563.71	807.76
564.06	805.71
564.42	803.95
564.77	802.90
565.12	802.05
565.48	803.24
565.83	802.71
566.19	801.43
566.54	800.05
566.89	798.38
567.25	797.81
567.60	797.05
567.96	798.62
568.31	798.62
568.66	797.76
569.02	794.24
569.37	792.81
569.72	791.67
570.08	789.76
570.43	788.67
570.78	787.48
571.14	786.67
571.49	786.52
571.84	785.57
572.20	783.90
572.55	781.71
572.90	778.52
573.26	776.71
573.61	774.38
573.96	773.33
574.31	771.95
574.67	769.86
575.02	768.33
575.37	764.10
575.72	761.95
576.08	759.71
576.43	758.81
576.78	757.76
577.13	756.43
577.49	756.00
577.84	754.71
578.19	753.19
578.54	751.95
578.90	750.00
579.25	748.33
579.60	746.81
579.95	745.38
580.30	744.38
580.66	743.95
581.01	742.33
581.36	740.33
581.71	739.00
582.06	739.14
582.42	737.14
582.77	736.00
583.12	735.29
583.47	733.95
583.82	732.67
584.17	731.24
584.53	730.62
584.88	727.90
585.23	727.00
585.58	725.24
585.93	723.24
586.28	721.67
586.63	719.67
586.98	717.81
587.34	716.24
587.69	713.57
588.04	711.05
588.39	708.95
588.74	706.33
589.09	705.00
589.44	700.33
589.79	697.90
590.14	694.71
590.49	690.90
590.84	688.00
591.19	684.71
591.54	681.43
591.89	677.29
592.25	676.90
592.60	672.90
592.95	669.95
593.30	667.43
593.65	664.43
594.00	661.52
594.35	665.67
594.70	661.71
595.05	658.95
595.40	655.86
595.75	653.19
596.10	650.67
596.45	646.48
596.80	644.05
597.15	641.24
597.50	637.86
597.85	636.05
598.19	633.52
598.54	630.90
598.89	628.00
599.24	625.43
599.59	620.48
599.94	618.10
600.29	615.95
600.64	613.05
600.99	611.24
601.34	608.86
601.69	599.48
602.04	597.62
602.39	594.81
602.74	592.81
603.08	591.05
603.43	589.48
603.78	587.29
604.13	584.81
604.48	583.24
604.83	583.62
605.18	582.24
605.53	582.81
605.87	584.67
606.22	588.05
606.57	592.52
606.92	597.71
607.27	603.19
607.62	607.95
607.96	614.10
608.31	617.62
608.66	621.33
609.01	625.38
609.36	629.05
609.70	633.00
610.05	635.57
610.40	638.48
610.75	640.19
611.10	642.29
611.44	644.29
611.79	644.71
612.14	644.05
612.49	642.24
612.83	639.71
613.18	635.24
613.53	629.95
613.88	622.86
614.22	614.52
614.57	605.81
614.92	597.62
615.27	588.86
615.61	581.67
615.96	575.14
616.31	568.38
616.65	562.33
617.00	555.71
617.35	549.71
617.70	544.10
618.04	538.76
618.39	533.95
618.74	529.67
619.08	525.14
619.43	520.81
619.78	517.81
620.12	514.43
620.47	511.71
620.82	508.05
621.16	505.57
621.51	505.19
621.85	502.81
622.20	501.14
622.55	498.00
622.89	495.71
623.24	493.62
623.59	490.43
623.93	487.67
624.28	485.52
624.62	486.10
624.97	485.38
625.32	483.05
625.66	481.14
626.01	478.95
626.35	478.00
626.70	476.43
627.04	475.67
627.39	474.05
627.73	473.38
628.08	472.48
628.43	469.81
628.77	466.19
629.12	464.43
629.46	462.00
629.81	460.48
630.15	458.24
630.50	455.48
630.84	453.90
631.19	452.29
631.53	449.81
631.88	444.43
632.22	439.71
632.57	438.57
632.91	436.00
633.26	433.62
633.60	430.90
633.95	428.57
634.29	425.29
634.64	422.76
634.98	419.19
635.32	417.14
635.67	415.86
636.01	413.62
636.36	411.57
636.70	409.81
637.05	407.90
637.39	406.57
637.73	405.57
638.08	404.19
638.42	401.76
638.77	400.67
639.11	399.52
639.45	398.10
639.80	395.67
640.14	394.71
640.49	393.24
640.83	391.29
641.17	390.05
641.52	388.52
641.86	387.90
642.20	388.10
642.55	386.57
642.89	385.33
643.23	384.57
643.58	384.52
643.92	382.76
644.26	381.57
644.61	381.00
644.95	379.62
645.29	378.24
645.64	378.24
645.98	376.95
646.32	376.57
646.66	375.67
647.01	374.81
647.35	373.90
647.69	373.05
648.04	373.33
648.38	372.90
648.72	372.43
649.06	370.52
649.41	368.57
649.75	367.10
650.09	366.19
650.43	365.33
650.78	363.00
651.12	362.43
651.46	361.57
651.80	359.86
652.14	358.81
652.49	358.24
652.83	356.67
653.17	355.33
653.51	353.29
653.85	352.38
654.20	351.57
654.54	349.71
654.88	348.19
655.22	346.19
655.56	344.38
655.90	343.24
656.25	342.95
656.59	341.95
656.93	341.29
657.27	341.05
657.61	339.95
657.95	339.52
658.29	338.67
658.64	338.48
658.98	337.48
659.32	336.24
659.66	335.33
660.00	335.19
660.34	334.95
660.68	334.57
661.02	334.14
661.36	332.86
661.70	332.57
662.05	332.10
662.39	332.00
662.73	332.33
663.07	333.24
663.41	332.52
663.75	331.71
664.09	331.24
664.43	329.62
664.77	328.81
665.11	327.81
665.45	327.05
665.79	326.67
666.13	325.90
666.47	325.52
666.81	324.57
667.15	322.71
667.49	322.19
667.83	322.10
668.17	321.33
668.51	320.71
668.85	320.19
669.19	320.76
669.53	319.67
669.87	318.57
670.21	316.29
670.55	315.14
670.89	315.71
671.23	314.48
671.57	314.29
671.91	313.71
672.25	313.43
672.58	313.71
672.92	312.10
673.26	311.29
673.60	310.71
673.94	310.10
674.28	310.05
674.62	309.76
674.96	309.00
675.30	308.29
675.64	308.14
675.97	307.38
676.31	305.57
676.65	305.05
676.99	304.62
677.33	303.76
677.67	303.43
678.01	301.43
678.34	301.43
678.68	301.00
679.02	300.57
679.36	299.76
679.70	298.48
680.04	297.90
680.37	297.52
680.71	296.76
681.05	296.81
681.39	296.00
681.73	294.95
682.06	294.33
682.40	293.57
682.74	293.10
683.08	293.90
683.42	293.67
683.75	293.71
684.09	293.05
684.43	293.19
684.77	292.81
685.10	293.00
685.44	292.38
685.78	291.71
686.12	291.00
686.45	290.81
686.79	290.57
687.13	290.90
687.46	290.67
687.80	291.33
688.14	290.52
688.48	290.62
688.81	290.33
689.15	290.57
689.49	290.38
689.82	290.38
690.16	289.05
690.50	288.57
690.83	287.86
691.17	286.90
691.51	286.19
691.84	286.14
692.18	285.29
692.52	284.95
692.85	284.57
693.19	285.71
693.52	285.29
693.86	284.76
694.20	284.29
694.53	284.10
694.87	283.10
695.21	282.67
695.54	282.10
695.88	281.62
696.21	280.81
696.55	280.52
696.88	279.71
697.22	278.90
697.56	278.81
697.89	278.14
698.23	278.43
698.56	278.38
698.90	278.05
699.23	277.62
699.57	277.29
699.90	276.90
700.24	275.90
700.58	275.95
700.91	276.43
701.25	278.38
701.58	279.14
701.92	279.90
702.25	279.95
702.59	280.24
702.92	280.81
703.26	281.38
703.59	282.24
703.93	284.81
704.26	285.38
704.60	285.95
704.93	286.48
705.26	286.71
705.60	287.43
705.93	287.29
706.27	288.62
706.60	289.71
706.94	291.48
707.27	291.57
707.61	291.81
707.94	291.62
708.27	289.24
708.61	288.29
708.94	287.57
709.28	287.29
709.61	286.81
709.94	286.10
710.28	285.33
710.61	284.29
710.95	281.10
711.28	282.19
711.61	281.24
711.95	280.90
712.28	279.81
712.61	279.10
712.95	279.57
713.28	279.62
713.61	278.00
713.95	276.00
714.28	275.14
714.61	274.14
714.95	273.10
715.28	272.10
715.61	271.10
715.95	270.76
716.28	270.33
716.61	270.19
716.95	269.71
717.28	269.00
717.61	268.81
717.94	268.86
718.28	266.71
718.61	265.90
718.94	264.86
719.27	264.52
719.61	264.24
719.94	263.10
720.27	261.81
720.60	261.76
720.94	261.71
721.27	261.48
721.60	261.71
721.93	261.33
722.27	262.14
722.60	262.48
722.93	261.81
723.26	261.67
723.59	260.71
723.93	260.81
724.26	261.14
724.59	260.52
724.92	260.38
725.25	260.95
725.59	261.14
725.92	261.48
726.25	261.38
726.58	260.76
726.91	260.76
727.24	260.67
727.57	260.62
727.91	260.14
728.24	260.29
728.57	259.67
728.90	260.05
729.23	258.95
729.56	259.76
729.89	259.48
730.22	259.19
730.55	259.48
730.89	259.29
731.22	258.52
731.55	258.43
731.88	257.95
732.21	256.90
732.54	256.48
732.87	256.33
733.20	256.52
733.53	256.38
733.86	256.24
734.19	255.81
734.52	256.05
734.85	257.67
735.18	257.33
735.51	258.14
735.84	257.81
736.17	258.62
736.50	257.29
736.83	260.33
737.16	260.43
737.49	260.48
737.82	259.90
738.15	260.05
738.48	260.14
738.81	260.38
739.14	260.38
739.47	260.43
739.80	260.52
740.13	260.71
740.46	260.38
740.79	260.00
741.12	259.76
741.45	259.10
741.78	257.52
742.11	257.71
742.44	256.67
742.77	256.95
743.10	256.52
743.43	256.33
743.75	253.52
744.08	256.43
744.41	256.19
744.74	256.00
745.07	255.43
745.40	255.57
745.73	256.52
746.06	256.67
746.39	257.05
746.71	256.71
747.04	256.05
747.37	256.10
747.70	256.38
748.03	256.52
748.36	256.81
748.68	256.71
749.01	255.95
749.34	256.10
749.67	256.10
750.00	256.19
750.33	258.29
750.65	258.38
750.98	255.10
751.31	255.00
751.64	255.33
751.97	256.86
752.29	256.71
752.62	254.90
752.95	254.67
753.28	253.86
753.60	253.52
753.93	254.05
754.26	254.24
754.59	253.71
754.91	253.29
755.24	253.00
755.57	252.57
755.90	252.48
756.22	252.19
756.55	251.38
756.88	250.76
757.20	248.57
757.53	247.95
757.86	248.33
758.19	248.33
758.51	248.38
758.84	247.29
759.17	246.90
759.49	247.52
759.82	248.71
760.15	249.10
760.47	249.29
760.80	248.52
761.13	249.00
761.45	248.33
761.78	248.43
762.11	248.48
762.43	248.57
762.76	248.48
763.08	248.86
763.41	249.52
763.74	249.81
764.06	249.76
764.39	249.67
764.71	249.05
765.04	248.52
765.37	248.05
765.69	247.71
766.02	247.76
766.34	247.29
766.67	246.10
767.00	246.29
767.32	247.52
767.65	249.10
767.97	248.67
768.30	249.48
768.62	249.48
768.95	249.19
769.27	249.00
769.60	249.62
769.92	248.95
770.25	248.48
770.57	248.05
770.90	248.10
771.22	247.86
771.55	248.10
771.87	248.52
772.20	248.52
772.52	250.90
772.85	253.57
773.17	253.71
773.50	253.71
773.82	253.05
774.15	251.71
774.47	250.33
774.80	250.00
775.12	249.95
775.45	249.48
775.77	249.67
776.09	250.00
776.42	249.67
776.74	250.62
777.07	250.48
777.39	250.43
777.72	250.57
778.04	250.95
778.36	250.71
778.69	250.76
779.01	250.67
779.33	248.29
779.66	245.52
779.98	245.33
780.31	245.24
780.63	246.71
780.95	247.10
781.28	246.90
781.60	246.67
781.92	246.43
782.25	246.67
782.57	246.33
782.89	245.86
783.22	245.52
783.54	245.05
783.86	245.48
784.19	245.38
784.51	245.95
784.83	245.52
785.16	245.52
785.48	245.29
785.80	245.57
786.12	245.71
786.45	245.90
786.77	246.38
787.09	246.52
787.42	245.24
787.74	245.19
788.06	245.19
788.38	245.24
788.71	244.90
789.03	245.24
789.35	245.71
789.67	245.48
789.99	245.95
790.32	245.29
790.64	244.76
790.96	246.81
791.28	246.10
791.61	246.29
791.93	246.38
792.25	246.19
792.57	248.05
792.89	247.52
793.21	247.62
793.54	246.90
793.86	246.67
794.18	246.95
794.50	246.33
794.82	246.14
795.14	246.33
795.47	246.86
795.79	247.00
796.11	246.57
796.43	246.62
796.75	246.48
797.07	246.81
797.39	247.29
797.71	245.29
798.04	245.24
798.36	245.14
798.68	244.95
799.00	245.14
799.32	243.48
799.64	244.24
799.96	244.10
800.28	244.81
800.60	244.43
800.92	244.57
801.24	244.62
801.56	245.00
801.89	244.95
802.21	245.14
802.53	244.71
802.85	245.05
803.17	246.19
803.49	245.24
803.81	245.05
804.13	244.71
804.45	244.52
804.77	244.57
805.09	244.71
805.41	244.24
805.73	244.14
806.05	243.71
806.37	243.19
806.69	243.14
807.01	242.90
807.33	243.38
807.65	242.62
807.97	243.86
808.28	243.52
808.60	243.33
808.92	242.95
809.24	244.52
809.56	244.14
809.88	243.33
810.20	244.10
810.52	244.57
810.84	244.24
811.16	244.05
811.48	243.67
811.80	244.48
812.12	244.81
812.43	245.05
812.75	245.38
813.07	244.86
813.39	244.86
813.71	244.71
814.03	244.05
814.35	244.14
814.67	242.90
814.98	242.81
815.30	242.62
815.62	242.14
815.94	240.52
816.26	241.62
816.58	241.05
816.89	240.86
817.21	240.52
817.53	240.67
817.85	240.95
818.17	240.95
818.48	240.05
818.80	240.52
819.12	240.29
819.44	239.90
819.76	239.95
820.07	240.05
820.39	239.76
820.71	240.00
821.03	240.00
821.34	240.19
821.66	240.52
821.98	240.90
822.30	240.90
822.61	242.29
822.93	241.24
823.25	241.24
823.57	241.43
823.88	241.81
824.20	241.71
824.52	241.95
824.83	241.86
825.15	241.43
825.47	241.14
825.79	241.62
826.10	241.24
826.42	241.29
826.74	240.90
827.05	241.05
827.37	241.52
827.69	241.29
828.00	241.05
828.32	241.24
828.64	240.90
828.95	242.48
829.27	242.00
829.58	241.57
829.90	242.19
830.22	242.00
830.53	240.95
830.85	240.86
831.17	239.95
831.48	240.10
831.80	240.24
832.11	240.10
832.43	239.24
832.75	239.71
833.06	241.43
833.38	241.24
833.69	241.38
834.01	241.14
834.32	241.19
834.64	241.43
834.96	241.24
835.27	241.19
835.59	240.14
835.90	239.24
836.22	239.76
836.53	239.48
836.85	239.29
837.16	242.14
837.48	242.29
837.79	243.48
838.11	243.48
838.42	243.71
838.74	244.24
839.05	244.33
839.37	243.95
839.68	242.33
840.00	242.33
840.31	242.38
840.63	242.24
840.94	242.14
841.26	241.57
841.57	241.52
841.88	241.86
842.20	241.57
842.51	241.43
842.83	241.29
843.14	243.14
843.46	243.38
843.77	242.00
844.08	242.05
844.40	241.29
844.71	240.95
845.03	240.67
845.34	240.29
845.65	240.29
845.97	240.19
846.28	240.14
846.60	240.19
846.91	240.10
847.22	240.10
847.54	240.86
847.85	240.95
848.16	240.48
848.48	239.76
848.79	240.67
849.10	241.00
849.42	241.24
849.73	239.19
850.04	238.86
850.36	237.95
850.67	238.29
850.98	238.38
851.30	238.90
851.61	238.86
851.92	238.62
852.23	239.29
852.55	239.86
852.86	240.19
853.17	240.57
853.49	240.90
853.80	241.48
854.11	241.38
854.42	241.95
854.74	241.86
855.05	242.14
855.36	241.00
855.67	241.10
855.99	240.71
856.30	243.76
856.61	243.81
856.92	243.90
857.23	243.57
857.55	243.19
857.86	242.90
858.17	243.38
858.48	243.52
858.79	243.05
859.11	242.76
859.42	242.43
859.73	241.81
860.04	241.52
860.35	240.62
860.66	239.90
860.98	239.57
861.29	240.14
861.60	240.10
861.91	240.67
862.22	240.00
862.53	239.86
862.84	237.00
863.16	237.71
863.47	237.33
863.78	237.33
864.09	237.62
864.40	238.14
864.71	238.19
865.02	238.67
865.33	238.19
865.64	238.10
865.95	238.29
866.27	240.33
866.58	240.14
866.89	240.67
867.20	240.62
867.51	240.38
867.82	240.19
868.13	241.10
868.44	240.43
868.75	241.10
869.06	241.14
869.37	241.33
869.68	240.48
869.99	240.95
870.30	241.00
870.61	241.43
870.92	240.76
871.23	240.19
871.54	240.33
871.85	241.05
872.16	241.24
872.47	240.95
872.78	239.33
873.09	239.62
873.40	239.29
873.71	239.48
874.02	239.52
874.33	239.24
874.64	238.62
874.95	239.14
875.26	238.52
875.56	238.57
875.87	238.38
876.18	238.57
876.49	240.95
876.80	240.67
877.11	240.00
877.42	240.14
877.73	240.43
878.04	239.62
878.35	239.57
878.66	239.71
878.96	239.90
879.27	239.52
879.58	239.33
879.89	239.29
880.20	240.10
880.51	240.00
880.82	240.24
881.12	240.14
881.43	239.86
881.74	239.81
882.05	239.71
882.36	239.67
882.67	239.81
882.97	237.14
883.28	237.05
883.59	237.24
883.90	237.38
884.21	237.90
884.51	238.14
884.82	237.57
885.13	237.43
885.44	237.14
885.74	237.48
886.05	237.48
886.36	237.43
886.67	236.33
886.98	237.48
887.28	237.29
887.59	237.62
887.90	237.48
888.20	237.24
888.51	237.71
888.82	237.48
889.13	237.62
889.43	239.48
889.74	239.62
890.05	239.81
890.35	240.05
890.66	239.48
890.97	238.95
891.28	239.24
891.58	239.14
891.89	239.33
892.20	239.05
892.50	238.62
892.81	238.71
893.12	238.71
893.42	237.57
893.73	237.95
894.04	237.67
894.34	237.81
894.65	237.90
894.95	237.48
895.26	237.67
895.57	238.48
895.87	236.48
896.18	236.62
896.48	236.43
896.79	236.00
897.10	236.48
897.40	236.95
897.71	237.05
898.01	236.95
898.32	237.33
898.63	237.52
898.93	238.33
899.24	238.19
899.54	238.33
899.85	238.29
900.15	238.10
900.46	238.24
900.76	238.67
901.07	238.76
901.38	238.62
901.68	238.76
901.99	237.81
902.29	238.00
902.60	237.86
902.90	238.00
903.21	238.14
903.51	238.05
903.82	238.52
904.12	238.52
904.43	238.76
904.73	238.52
905.03	238.38
905.34	240.24
905.64	240.24
905.95	240.14
906.25	240.76
906.56	240.90
906.86	240.86
907.17	240.33
907.47	240.24
907.77	240.14
908.08	239.81
908.38	240.14
908.69	240.29
908.99	240.81
909.30	240.76
909.60	240.71
909.90	240.57
910.21	239.81
910.51	239.33
910.81	239.33
911.12	239.48
911.42	239.52
911.73	237.19
912.03	237.48
912.33	238.24
912.64	237.67
912.94	237.24
913.24	236.67
913.55	236.67
913.85	236.62
914.15	237.57
914.46	238.00
914.76	237.38
915.06	237.19
915.37	236.86
915.67	236.76
915.97	236.76
916.27	236.38
916.58	236.48
916.88	236.57
917.18	236.24
917.49	237.90
917.79	237.90
918.09	238.33
918.39	238.90
918.70	238.67
919.00	238.62
919.30	239.86
919.60	240.10
919.91	239.90
920.21	240.38
920.51	239.57
920.81	239.24
921.12	240.10
921.42	239.86
921.72	239.95
922.02	240.10
922.32	240.67
922.63	240.81
922.93	242.24
923.23	242.48
923.53	242.71
923.83	241.10
924.13	241.38
924.44	241.29
924.74	241.48
925.04	241.90
925.34	242.05
925.64	241.05
925.94	241.14
926.24	242.71
926.55	242.71
926.85	243.00
927.15	243.14
927.45	242.81
927.75	243.10
928.05	243.29
928.35	243.29
928.65	243.38
928.95	243.62
929.26	242.29
929.56	242.86
929.86	242.90
930.16	242.52
930.46	242.43
930.76	242.62
931.06	241.57
931.36	240.71
931.66	241.38
931.96	241.52
932.26	241.62
932.56	240.71
932.86	240.86
933.16	240.71
933.46	240.52
933.76	240.05
934.06	240.52
934.36	240.95
934.66	240.71
934.96	240.38
935.26	240.24
935.56	240.76
935.86	240.00
936.16	239.67
936.46	239.52
936.76	239.52
937.06	238.81
937.36	239.19
937.66	239.81
937.96	239.52
938.26	239.19
938.56	239.05
938.86	238.71
939.16	238.67
939.46	238.81
939.76	239.29
940.06	239.33
940.35	238.76
940.65	237.52
940.95	238.14
941.25	237.90
941.55	237.90
941.85	237.67
942.15	238.14
942.45	239.10
942.75	239.33
943.04	239.43
943.34	240.19
943.64	239.95
943.94	239.29
944.24	239.29
944.54	239.38
944.84	239.33
945.13	238.90
945.43	238.81
945.73	239.05
946.03	238.38
946.33	238.29
946.62	238.10
946.92	238.19
947.22	237.76
947.52	237.48
947.82	237.76
948.11	237.57
948.41	237.24
948.71	236.05
949.01	235.86
949.31	235.48
949.60	235.38
949.90	235.48
950.20	235.33
950.50	235.10
950.79	234.90
951.09	235.14
951.39	235.81
951.69	235.52
951.98	235.71
952.28	236.24
952.58	235.86
952.87	235.81
953.17	236.05
953.47	235.71
953.76	235.90
954.06	235.10
954.36	234.71
954.66	234.57
954.95	235.48
955.25	235.95
955.55	236.10
955.84	235.52
956.14	235.86
956.44	236.00
956.73	235.71
957.03	235.67
957.32	235.67
957.62	235.48
957.92	235.90
958.21	235.52
958.51	237.95
958.81	238.67
959.10	239.00
959.40	239.62
959.69	240.10
959.99	240.67
960.29	241.10
960.58	241.29
960.88	242.24
961.17	241.90
961.47	241.90
961.76	241.67
962.06	242.24
962.36	241.86
962.65	242.14
962.95	242.29
963.24	242.57
963.54	243.00
963.83	243.24
964.13	242.95
964.42	242.33
964.72	240.43
965.01	240.71
965.31	240.86
965.60	240.33
965.90	241.76
966.19	241.19
966.49	241.33
966.78	241.14
967.08	240.90
967.37	240.90
967.67	240.52
967.96	240.76
968.26	240.67
968.55	241.14
968.85	241.00
969.14	240.62
969.43	240.57
969.73	240.14
970.02	239.90
970.32	239.81
970.61	239.90
970.91	239.24
971.20	238.86
971.49	238.24
971.79	238.62
972.08	236.90
972.38	237.14
972.67	237.19
972.96	237.48
973.26	236.90
973.55	237.43
973.85	237.43
974.14	237.29
974.43	237.19
974.73	236.81
975.02	236.48
975.31	236.81
975.61	236.57
975.90	236.29
976.19	236.00
976.49	236.24
976.78	236.62
977.07	236.62
977.37	236.14
977.66	236.57
977.95	235.76
978.24	235.62
978.54	235.86
978.83	235.33
979.12	235.48
979.42	235.48
979.71	235.43
980.00	235.29
980.29	235.62
980.59	235.33
980.88	236.10
981.17	236.14
981.46	236.29
981.76	236.43
982.05	237.19
982.34	237.33
982.63	237.62
982.93	237.71
983.22	238.29
983.51	238.86
983.80	239.29
984.09	239.90
984.39	240.14
984.68	240.00
984.97	240.52
985.26	240.24
985.55	240.76
985.85	239.86
986.14	240.33
986.43	240.62
986.72	240.67
987.01	239.62
987.30	239.81
987.59	239.81
987.89	240.29
988.18	239.76
988.47	239.52
988.76	239.24
989.05	239.19
989.34	238.62
989.63	239.19
989.92	238.86
990.22	238.62
990.51	238.62
990.80	238.10
991.09	238.10
991.38	238.38
991.67	238.14
991.96	238.33
992.25	238.48
992.54	238.33
992.83	238.43
993.12	238.38
993.41	238.67
993.70	239.43
993.99	239.33
994.28	239.71
994.58	240.05
994.87	239.76
995.16	239.48
995.45	239.62
995.74	238.95
996.03	239.38
996.32	239.86
996.61	240.48
996.90	240.67
997.19	240.57
997.48	240.62
997.77	240.10
998.06	240.10
998.34	239.76
998.63	239.48
998.92	239.29
999.21	239.52
999.50	239.57
999.79	239.14
1000.08	239.10
1000.37	239.10
1000.66	238.90
1000.95	239.71
1001.24	239.81
1001.53	240.00
1001.82	239.81
1002.11	239.33
1002.40	239.38
1002.68	239.76
1002.97	241.57
1003.26	241.62
1003.55	241.57
1003.84	242.19
1004.13	243.00
1004.42	243.10
1004.71	243.29
1004.99	243.29
1005.28	243.71
1005.57	243.57
1005.86	242.86
1006.15	242.76
1006.44	242.33
1006.72	242.86
1007.01	242.10
1007.30	242.14
1007.59	241.71
1007.88	241.67
1008.17	241.76
1008.45	241.19
1008.74	240.00
1009.03	238.81
1009.32	238.43
1009.60	238.10
1009.89	237.57
1010.18	236.67
1010.47	236.19
1010.76	235.81
1011.04	235.52
1011.33	235.29
1011.62	235.48
1011.91	235.62
1012.19	235.90
1012.48	235.71
1012.77	235.38
1013.05	236.95
1013.34	236.67
1013.63	236.81
1013.92	236.76
1014.20	236.38
1014.49	236.52
1014.78	236.76
1015.06	236.00
1015.35	235.81
1015.64	236.19
1015.92	236.48
1016.21	236.48
1016.50	236.76
1016.78	237.14
1017.07	237.62
1017.36	237.57
1017.64	237.10
1017.93	237.67
1018.22	237.00
1018.50	236.90
1018.79	237.10
1019.08	235.43
1019.36	235.90
1019.65	235.43
1019.93	236.33
1020.22	236.71
1020.51	238.05
1020.79	237.71
1021.08	229.00
1021.36	231.00
1021.65	242.00
1021.94	232.00
1022.22	239.00
1022.51	229.00
1022.79	251.00
1023.08	240.00
1023.36	267.00
1023.65	229.00
>>>>>End Processed Spectral Data<<<<<
