SpectraSuite Data File
++++++++++++++++++++++++++++++++++++
Date: Wed Nov 07 18:32:00 EST 2012
User: group
Dark Spectrum Present: No
Reference Spectrum Present: No
Number of Sampled Component Spectra: 1
Spectrometers: USB2E7196
Integration Time (usec): 1000000 (USB2E7196)
Spectra Averaged: 1 (USB2E7196)
Boxcar Smoothing: 10 (USB2E7196)
Correct for Electrical Dark: No (USB2E7196)
Strobe/Lamp Enabled: No (USB2E7196)
Correct for Detector Non-linearity: No (USB2E7196)
Correct for Stray Light: No (USB2E7196)
Number of Pixels in Processed Spectrum: 2048
>>>>>Begin Processed Spectral Data<<<<<
339.09	0.00
339.48	220.00
339.86	218.00
340.24	224.00
340.63	226.00
341.01	263.00
341.39	223.00
341.78	235.00
342.16	233.00
342.54	226.00
342.93	222.29
343.31	233.52
343.69	234.00
344.07	234.57
344.46	235.48
344.84	235.95
345.22	234.71
345.60	235.19
345.99	234.95
346.37	234.90
346.75	235.05
347.13	235.48
347.52	235.76
347.90	236.62
348.28	236.67
348.66	237.05
349.05	236.43
349.43	236.67
349.81	236.90
350.19	236.90
350.57	237.05
350.96	237.43
351.34	237.43
351.72	237.71
352.10	237.81
352.48	237.29
352.87	237.33
353.25	237.24
353.63	237.29
354.01	237.38
354.39	238.00
354.77	238.43
355.15	239.10
355.54	239.05
355.92	238.29
356.30	238.29
356.68	240.14
357.06	240.05
357.44	239.48
357.82	239.33
358.20	239.71
358.58	239.52
358.97	239.48
359.35	240.00
359.73	240.43
360.11	240.52
360.49	240.76
360.87	240.76
361.25	241.10
361.63	242.00
362.01	242.33
362.39	242.05
362.77	242.33
363.15	242.19
363.53	242.05
363.91	242.29
364.29	242.48
364.67	239.95
365.05	240.19
365.43	240.76
365.81	241.10
366.19	242.38
366.57	243.43
366.95	243.43
367.33	243.00
367.71	242.95
368.09	243.43
368.47	243.52
368.85	243.29
369.23	243.57
369.61	242.76
369.99	243.67
370.37	243.95
370.75	244.86
371.13	244.33
371.51	243.90
371.89	244.24
372.27	244.24
372.65	244.43
373.03	244.24
373.41	244.10
373.78	244.19
374.16	242.86
374.54	242.05
374.92	241.57
375.30	241.48
375.68	240.90
376.06	240.71
376.44	240.43
376.82	240.90
377.19	240.86
377.57	240.48
377.95	239.57
378.33	238.86
378.71	237.43
379.09	237.67
379.47	238.05
379.84	237.76
380.22	237.52
380.60	237.14
380.98	237.24
381.36	237.00
381.73	236.52
382.11	237.00
382.49	237.05
382.87	237.24
383.25	237.67
383.62	240.57
384.00	240.29
384.38	240.48
384.76	241.00
385.13	241.86
385.51	242.10
385.89	241.76
386.27	242.19
386.64	242.67
387.02	242.29
387.40	242.29
387.78	242.14
388.15	242.62
388.53	242.38
388.91	242.29
389.29	242.00
389.66	242.48
390.04	242.00
390.42	242.52
390.79	242.62
391.17	242.10
391.55	239.43
391.92	239.62
392.30	239.90
392.68	239.29
393.05	238.95
393.43	239.38
393.81	239.81
394.18	239.62
394.56	239.62
394.94	240.43
395.31	240.19
395.69	241.14
396.06	241.00
396.44	241.48
396.82	241.48
397.19	242.86
397.57	242.43
397.95	242.90
398.32	242.29
398.70	242.57
399.07	243.52
399.45	243.24
399.82	243.24
400.20	242.86
400.58	242.62
400.95	241.67
401.33	241.95
401.70	243.62
402.08	243.71
402.45	244.10
402.83	244.62
403.20	245.10
403.58	244.71
403.95	245.24
404.33	245.33
404.71	245.29
405.08	247.05
405.46	247.33
405.83	247.67
406.21	247.95
406.58	248.24
406.96	248.43
407.33	249.33
407.70	249.95
408.08	252.76
408.45	254.00
408.83	255.43
409.20	255.81
409.58	254.90
409.95	256.48
410.33	256.90
410.70	257.05
411.08	258.24
411.45	259.71
411.82	260.57
412.20	262.48
412.57	265.33
412.95	264.52
413.32	266.81
413.69	268.33
414.07	270.29
414.44	272.05
414.82	274.19
415.19	276.95
415.56	279.38
415.94	280.29
416.31	283.52
416.68	286.43
417.06	290.00
417.43	293.95
417.81	297.38
418.18	301.48
418.55	305.48
418.93	309.62
419.30	313.67
419.67	318.38
420.04	323.48
420.42	327.57
420.79	334.95
421.16	340.43
421.54	348.05
421.91	353.71
422.28	360.19
422.66	366.62
423.03	374.38
423.40	381.38
423.77	388.29
424.15	394.81
424.52	402.52
424.89	411.48
425.26	419.19
425.64	426.76
426.01	434.43
426.38	443.86
426.75	453.52
427.13	462.48
427.50	472.29
427.87	481.71
428.24	491.67
428.61	499.48
428.99	511.05
429.36	521.43
429.73	532.52
430.10	544.00
430.47	556.24
430.85	567.00
431.22	579.86
431.59	595.48
431.96	609.19
432.33	623.00
432.70	636.52
433.08	652.71
433.45	668.14
433.82	683.86
434.19	700.67
434.56	716.62
434.93	732.00
435.30	747.71
435.68	765.43
436.05	781.76
436.42	798.19
436.79	813.19
437.16	828.71
437.53	846.10
437.90	863.43
438.27	879.52
438.64	896.67
439.01	912.71
439.38	924.43
439.75	937.48
440.13	952.57
440.50	965.81
440.87	977.33
441.24	988.24
441.61	1002.05
441.98	1011.43
442.35	1022.29
442.72	1034.43
443.09	1045.57
443.46	1050.57
443.83	1055.00
444.20	1058.71
444.57	1063.05
444.94	1064.90
445.31	1066.95
445.68	1070.81
446.05	1070.10
446.42	1067.10
446.79	1064.86
447.16	1060.95
447.53	1058.48
447.90	1051.33
448.27	1044.19
448.64	1033.81
449.01	1027.48
449.37	1015.38
449.74	1003.14
450.11	991.24
450.48	975.24
450.85	959.19
451.22	945.48
451.59	932.95
451.96	920.62
452.33	904.38
452.70	889.76
453.07	873.00
453.43	852.29
453.80	837.00
454.17	821.19
454.54	804.81
454.91	789.48
455.28	773.71
455.65	758.57
456.02	748.62
456.38	736.71
456.75	721.29
457.12	707.10
457.49	695.19
457.86	680.29
458.23	671.14
458.59	659.14
458.96	648.62
459.33	638.29
459.70	628.00
460.07	620.57
460.43	611.52
460.80	603.52
461.17	596.67
461.54	588.86
461.91	581.52
462.27	573.86
462.64	567.81
463.01	560.81
463.38	555.00
463.74	543.86
464.11	537.14
464.48	532.29
464.85	527.00
465.21	522.33
465.58	518.48
465.95	512.14
466.32	508.24
466.68	503.43
467.05	499.05
467.42	494.71
467.78	489.14
468.15	484.71
468.52	481.14
468.88	476.81
469.25	471.81
469.62	468.67
469.98	465.10
470.35	461.90
470.72	458.71
471.08	454.62
471.45	452.10
471.82	450.57
472.18	447.33
472.55	445.29
472.92	441.95
473.28	439.71
473.65	437.19
474.02	434.57
474.38	433.19
474.75	431.90
475.11	429.86
475.48	429.00
475.85	427.24
476.21	425.38
476.58	424.57
476.94	423.67
477.31	422.38
477.67	421.81
478.04	420.81
478.41	420.10
478.77	422.19
479.14	421.43
479.50	419.81
479.87	419.90
480.23	419.76
480.60	419.86
480.96	419.71
481.33	421.19
481.69	421.57
482.06	422.00
482.42	422.29
482.79	423.29
483.15	423.86
483.52	425.71
483.88	426.57
484.25	427.33
484.61	429.00
484.98	430.10
485.34	431.76
485.71	433.62
486.07	435.05
486.44	433.81
486.80	435.19
487.17	437.38
487.53	439.10
487.90	440.86
488.26	443.52
488.62	445.76
488.99	446.57
489.35	449.19
489.72	451.10
490.08	452.57
490.44	454.05
490.81	456.00
491.17	458.00
491.54	460.52
491.90	463.00
492.26	464.57
492.63	467.48
492.99	470.05
493.36	472.62
493.72	475.81
494.08	479.10
494.45	482.38
494.81	485.24
495.17	488.19
495.54	492.14
495.90	494.43
496.26	497.48
496.63	501.62
496.99	504.19
497.35	507.90
497.72	512.24
498.08	516.38
498.44	521.38
498.80	525.38
499.17	529.33
499.53	532.90
499.89	538.76
500.26	542.71
500.62	547.05
500.98	551.81
501.34	556.62
501.71	562.62
502.07	567.71
502.43	572.90
502.79	577.57
503.16	582.10
503.52	587.19
503.88	591.76
504.24	596.81
504.60	602.86
504.97	607.90
505.33	612.48
505.69	618.10
506.05	622.62
506.41	627.95
506.78	633.43
507.14	639.24
507.50	644.14
507.86	649.81
508.22	654.95
508.59	659.48
508.95	664.43
509.31	670.33
509.67	675.57
510.03	680.43
510.39	685.86
510.75	690.76
511.12	695.67
511.48	700.81
511.84	705.05
512.20	709.38
512.56	714.24
512.92	719.95
513.28	724.43
513.64	729.10
514.00	734.10
514.37	738.71
514.73	743.81
515.09	748.38
515.45	752.62
515.81	756.86
516.17	761.14
516.53	765.86
516.89	767.86
517.25	771.29
517.61	775.76
517.97	779.67
518.33	783.52
518.69	787.43
519.05	792.10
519.41	796.62
519.77	801.86
520.13	806.10
520.49	807.95
520.85	811.00
521.21	815.00
521.57	818.24
521.93	820.81
522.29	823.43
522.65	825.05
523.01	827.57
523.37	829.71
523.73	832.90
524.09	833.76
524.45	835.90
524.81	838.33
525.17	839.95
525.53	841.76
525.89	843.76
526.25	846.71
526.61	847.62
526.97	848.71
527.33	849.71
527.68	852.95
528.04	855.05
528.40	856.43
528.76	857.62
529.12	858.38
529.48	859.86
529.84	859.95
530.20	861.71
530.56	863.05
530.91	865.19
531.27	866.05
531.63	868.48
531.99	869.95
532.35	870.95
532.71	871.71
533.07	872.90
533.42	876.14
533.78	875.81
534.14	877.52
534.50	878.57
534.86	879.57
535.21	878.24
535.57	880.95
535.93	882.14
536.29	884.67
536.65	886.52
537.00	887.62
537.36	890.00
537.72	892.33
538.08	895.67
538.44	897.10
538.79	899.33
539.15	901.05
539.51	903.57
539.87	905.71
540.22	908.57
540.58	910.24
540.94	910.24
541.29	912.71
541.65	914.19
542.01	916.29
542.37	917.95
542.72	919.24
543.08	918.76
543.44	919.76
543.79	917.38
544.15	917.14
544.51	917.57
544.87	916.52
545.22	915.33
545.58	912.43
545.94	910.71
546.29	909.33
546.65	907.10
547.01	903.81
547.36	900.81
547.72	898.00
548.07	896.00
548.43	893.10
548.79	890.00
549.14	886.43
549.50	883.38
549.86	879.57
550.21	877.62
550.57	875.19
550.92	872.10
551.28	870.67
551.64	868.33
551.99	866.33
552.35	864.24
552.70	861.67
553.06	860.62
553.41	857.67
553.77	855.62
554.13	853.95
554.48	852.57
554.84	851.81
555.19	849.43
555.55	848.95
555.90	846.71
556.26	844.52
556.61	843.14
556.97	840.33
557.32	838.67
557.68	835.95
558.03	834.29
558.39	833.10
558.74	831.52
559.10	828.90
559.45	826.76
559.81	824.95
560.16	823.14
560.52	820.62
560.87	819.48
561.23	817.14
561.58	816.76
561.94	815.24
562.29	812.86
562.64	812.05
563.00	808.05
563.35	807.24
563.71	805.95
564.06	804.24
564.42	803.19
564.77	801.24
565.12	800.00
565.48	800.86
565.83	799.52
566.19	798.05
566.54	797.52
566.89	795.76
567.25	795.76
567.60	796.00
567.96	796.86
568.31	797.57
568.66	797.10
569.02	793.76
569.37	791.57
569.72	790.57
570.08	788.71
570.43	788.00
570.78	785.86
571.14	784.24
571.49	782.86
571.84	781.33
572.20	779.95
572.55	778.38
572.90	774.29
573.26	773.24
573.61	771.10
573.96	769.67
574.31	768.81
574.67	766.95
575.02	763.95
575.37	759.95
575.72	757.52
576.08	755.67
576.43	754.81
576.78	754.24
577.13	752.71
577.49	750.90
577.84	750.33
578.19	748.67
578.54	747.76
578.90	746.81
579.25	746.52
579.60	746.00
579.95	744.14
580.30	743.19
580.66	741.00
581.01	740.05
581.36	738.19
581.71	735.52
582.06	734.90
582.42	733.86
582.77	732.24
583.12	730.76
583.47	728.81
583.82	727.10
584.17	726.33
584.53	725.57
584.88	724.57
585.23	723.29
585.58	721.95
585.93	719.71
586.28	717.67
586.63	715.05
586.98	712.90
587.34	711.48
587.69	708.95
588.04	706.62
588.39	705.00
588.74	702.29
589.09	701.67
589.44	698.48
589.79	695.95
590.14	693.95
590.49	690.71
590.84	687.71
591.19	684.29
591.54	680.76
591.89	676.43
592.25	675.29
592.60	670.62
592.95	667.81
593.30	665.52
593.65	662.43
594.00	658.62
594.35	662.52
594.70	658.81
595.05	656.19
595.40	654.33
595.75	650.86
596.10	648.76
596.45	645.67
596.80	642.00
597.15	639.14
597.50	636.19
597.85	633.71
598.19	631.19
598.54	629.29
598.89	626.33
599.24	624.67
599.59	620.14
599.94	617.43
600.29	615.24
600.64	612.43
600.99	610.95
601.34	609.48
601.69	600.19
602.04	598.05
602.39	594.86
602.74	592.33
603.08	589.71
603.43	588.24
603.78	585.81
604.13	583.67
604.48	581.57
604.83	581.24
605.18	580.67
605.53	581.00
605.87	583.10
606.22	586.52
606.57	591.00
606.92	596.76
607.27	602.48
607.62	608.05
607.96	613.62
608.31	617.95
608.66	622.29
609.01	625.57
609.36	629.38
609.70	633.33
610.05	635.43
610.40	638.19
610.75	639.90
611.10	641.19
611.44	643.14
611.79	644.19
612.14	643.81
612.49	642.29
612.83	639.86
613.18	635.05
613.53	629.38
613.88	622.05
614.22	613.05
614.57	604.90
614.92	595.95
615.27	587.81
615.61	579.57
615.96	572.14
616.31	565.05
616.65	558.81
617.00	552.48
617.35	546.43
617.70	540.81
618.04	535.62
618.39	530.24
618.74	526.05
619.08	521.52
619.43	517.48
619.78	513.19
620.12	510.19
620.47	507.95
620.82	504.86
621.16	501.33
621.51	500.67
621.85	498.67
622.20	497.38
622.55	494.38
622.89	492.24
623.24	490.52
623.59	488.57
623.93	486.95
624.28	485.00
624.62	486.19
624.97	485.38
625.32	482.71
625.66	481.24
626.01	478.52
626.35	476.95
626.70	475.19
627.04	475.00
627.39	473.38
627.73	472.10
628.08	470.43
628.43	469.43
628.77	465.90
629.12	463.48
629.46	460.67
629.81	459.24
630.15	456.90
630.50	454.05
630.84	451.95
631.19	449.19
631.53	446.57
631.88	441.29
632.22	437.86
632.57	435.86
632.91	433.71
633.26	431.86
633.60	429.43
633.95	426.19
634.29	423.29
634.64	420.86
634.98	418.00
635.32	416.05
635.67	413.62
636.01	412.05
636.36	410.24
636.70	408.81
637.05	406.48
637.39	404.67
637.73	403.38
638.08	402.38
638.42	400.29
638.77	398.90
639.11	397.62
639.45	395.81
639.80	394.48
640.14	392.81
640.49	391.19
640.83	389.38
641.17	388.05
641.52	386.33
641.86	385.14
642.20	384.10
642.55	382.57
642.89	381.48
643.23	380.24
643.58	379.86
643.92	377.81
644.26	377.24
644.61	376.76
644.95	375.81
645.29	374.14
645.64	374.33
645.98	373.29
646.32	372.76
646.66	372.14
647.01	371.19
647.35	370.95
647.69	370.38
648.04	369.90
648.38	369.33
648.72	368.67
649.06	367.24
649.41	365.81
649.75	364.90
650.09	364.29
650.43	363.33
650.78	361.52
651.12	360.86
651.46	359.81
651.80	358.29
652.14	356.57
652.49	356.24
652.83	354.33
653.17	353.33
653.51	351.90
653.85	350.76
654.20	349.38
654.54	347.76
654.88	346.14
655.22	344.67
655.56	343.57
655.90	342.10
656.25	341.33
656.59	340.48
656.93	339.67
657.27	339.00
657.61	337.90
657.95	337.24
658.29	336.05
658.64	335.43
658.98	335.43
659.32	334.71
659.66	333.48
660.00	332.95
660.34	332.57
660.68	331.86
661.02	331.62
661.36	330.71
661.70	329.76
662.05	329.05
662.39	329.05
662.73	329.33
663.07	330.71
663.41	330.33
663.75	329.38
664.09	328.71
664.43	327.29
664.77	326.81
665.11	326.05
665.45	325.62
665.79	325.14
666.13	323.67
666.47	323.00
666.81	322.29
667.15	321.19
667.49	320.57
667.83	320.71
668.17	319.19
668.51	318.52
668.85	318.62
669.19	319.00
669.53	317.95
669.87	316.95
670.21	314.76
670.55	314.14
670.89	314.86
671.23	314.00
671.57	313.90
671.91	313.67
672.25	313.14
672.58	313.81
672.92	312.38
673.26	311.67
673.60	311.57
673.94	311.29
674.28	311.05
674.62	311.00
674.96	310.14
675.30	310.38
675.64	310.00
675.97	309.43
676.31	308.24
676.65	307.29
676.99	307.29
677.33	306.57
677.67	306.00
678.01	304.43
678.34	304.14
678.68	303.95
679.02	302.90
679.36	302.24
679.70	300.81
680.04	300.33
680.37	300.24
680.71	299.48
681.05	298.71
681.39	298.24
681.73	297.33
682.06	295.86
682.40	294.95
682.74	294.76
683.08	295.10
683.42	294.48
683.75	294.81
684.09	293.71
684.43	293.43
684.77	292.76
685.10	292.33
685.44	292.00
685.78	291.57
686.12	291.33
686.45	291.10
686.79	290.43
687.13	291.24
687.46	290.95
687.80	291.14
688.14	291.10
688.48	291.05
688.81	290.76
689.15	291.48
689.49	291.24
689.82	291.48
690.16	290.14
690.50	289.81
690.83	289.00
691.17	288.29
691.51	288.00
691.84	287.67
692.18	286.95
692.52	286.33
692.85	286.05
693.19	286.33
693.52	285.71
693.86	285.24
694.20	284.29
694.53	283.90
694.87	283.05
695.21	282.10
695.54	281.38
695.88	280.33
696.21	278.95
696.55	278.29
696.88	277.19
697.22	276.43
697.56	276.52
697.89	276.33
698.23	276.43
698.56	275.86
698.90	276.05
699.23	275.62
699.57	275.48
699.90	274.48
700.24	273.76
700.58	273.90
700.91	274.48
701.25	276.29
701.58	276.81
701.92	277.62
702.25	278.24
702.59	278.24
702.92	278.81
703.26	279.76
703.59	280.62
703.93	283.33
704.26	284.43
704.60	285.00
704.93	285.38
705.26	285.52
705.60	286.33
705.93	286.29
706.27	287.67
706.60	288.86
706.94	290.24
707.27	290.29
707.61	290.48
707.94	290.57
708.27	288.81
708.61	288.00
708.94	287.29
709.28	287.00
709.61	286.67
709.94	286.52
710.28	286.10
710.61	285.33
710.95	282.14
711.28	282.71
711.61	281.67
711.95	281.19
712.28	279.81
712.61	278.86
712.95	279.29
713.28	279.19
713.61	277.62
713.95	276.05
714.28	275.29
714.61	274.19
714.95	273.10
715.28	271.86
715.61	270.95
715.95	270.48
716.28	269.33
716.61	269.19
716.95	268.10
717.28	267.29
717.61	266.86
717.94	266.48
718.28	264.19
718.61	263.81
718.94	263.33
719.27	263.43
719.61	263.24
719.94	262.38
720.27	261.10
720.60	260.81
720.94	260.71
721.27	260.67
721.60	261.00
721.93	260.86
722.27	261.76
722.60	262.10
722.93	261.95
723.26	262.48
723.59	262.05
723.93	262.33
724.26	262.67
724.59	262.52
724.92	262.62
725.25	263.43
725.59	263.14
725.92	263.10
726.25	262.86
726.58	263.10
726.91	262.76
727.24	262.86
727.57	262.95
727.91	262.52
728.24	262.52
728.57	261.81
728.90	262.00
729.23	261.10
729.56	262.10
729.89	262.10
730.22	261.86
730.55	261.71
730.89	261.86
731.22	261.86
731.55	261.67
731.88	261.76
732.21	261.57
732.54	261.24
732.87	261.10
733.20	261.19
733.53	261.00
733.86	260.76
734.19	260.24
734.52	260.24
734.85	262.19
735.18	261.76
735.51	262.81
735.84	262.71
736.17	263.00
736.50	261.71
736.83	264.10
737.16	263.95
737.49	264.05
737.82	263.43
738.15	263.52
738.48	263.29
738.81	262.62
739.14	261.81
739.47	261.76
739.80	261.57
740.13	261.90
740.46	261.05
740.79	260.48
741.12	260.48
741.45	260.10
741.78	258.24
742.11	258.76
742.44	257.71
742.77	257.90
743.10	257.52
743.43	257.14
743.75	254.52
744.08	257.52
744.41	256.95
744.74	256.86
745.07	255.86
745.40	256.38
745.73	257.71
746.06	257.48
746.39	257.86
746.71	257.57
747.04	256.95
747.37	257.10
747.70	257.57
748.03	257.38
748.36	257.24
748.68	257.19
749.01	256.14
749.34	256.24
749.67	255.76
750.00	255.81
750.33	257.29
750.65	257.43
750.98	254.14
751.31	254.33
751.64	254.52
751.97	256.05
752.29	255.52
752.62	254.10
752.95	254.05
753.28	253.10
753.60	252.90
753.93	253.33
754.26	253.57
754.59	252.90
754.91	252.57
755.24	252.71
755.57	252.57
755.90	252.48
756.22	252.29
756.55	251.90
756.88	251.24
757.20	249.76
757.53	249.14
757.86	249.00
758.19	248.86
758.51	248.43
758.84	247.05
759.17	246.95
759.49	246.90
759.82	248.00
760.15	248.52
760.47	248.43
760.80	247.62
761.13	248.05
761.45	247.86
761.78	248.05
762.11	247.95
762.43	247.57
762.76	247.81
763.08	247.81
763.41	247.95
763.74	248.33
764.06	248.24
764.39	247.95
764.71	248.19
765.04	247.86
765.37	248.19
765.69	248.05
766.02	247.86
766.34	247.71
766.67	246.76
767.00	247.19
767.32	248.86
767.65	250.38
767.97	250.00
768.30	250.52
768.62	250.52
768.95	250.05
769.27	249.86
769.60	249.95
769.92	249.62
770.25	249.29
770.57	248.67
770.90	249.00
771.22	248.95
771.55	248.81
771.87	249.38
772.20	248.86
772.52	250.81
772.85	253.76
773.17	254.24
773.50	254.19
773.82	253.38
774.15	251.86
774.47	250.43
774.80	249.81
775.12	249.24
775.45	249.05
775.77	249.29
776.09	249.43
776.42	249.57
776.74	250.10
777.07	249.76
777.39	249.90
777.72	249.38
778.04	249.81
778.36	249.38
778.69	249.00
779.01	249.29
779.33	247.67
779.66	244.95
779.98	244.71
780.31	244.76
780.63	245.90
780.95	246.29
781.28	246.29
781.60	246.19
781.92	246.29
782.25	246.38
782.57	246.43
782.89	246.76
783.22	246.57
783.54	245.95
783.86	246.43
784.19	246.33
784.51	247.14
784.83	246.90
785.16	246.95
785.48	247.19
785.80	247.10
786.12	247.05
786.45	246.71
786.77	246.38
787.09	246.19
787.42	245.43
787.74	245.57
788.06	245.52
788.38	245.48
788.71	245.05
789.03	244.86
789.35	244.90
789.67	244.05
789.99	243.95
790.32	243.81
790.64	244.19
790.96	245.76
791.28	244.90
791.61	244.24
791.93	244.33
792.25	243.90
792.57	245.62
792.89	244.81
793.21	245.00
793.54	245.00
793.86	244.62
794.18	244.71
794.50	244.05
794.82	244.24
795.14	244.48
795.47	245.24
795.79	245.43
796.11	245.00
796.43	245.10
796.75	245.38
797.07	245.76
797.39	245.33
797.71	244.00
798.04	244.10
798.36	244.62
798.68	244.57
799.00	244.86
799.32	243.43
799.64	244.29
799.96	244.33
800.28	244.67
800.60	244.71
800.92	244.95
801.24	244.90
801.56	245.00
801.89	244.62
802.21	244.86
802.53	244.33
802.85	244.67
803.17	245.81
803.49	245.29
803.81	245.05
804.13	245.14
804.45	244.90
804.77	245.00
805.09	245.00
805.41	244.62
805.73	244.10
806.05	243.90
806.37	243.48
806.69	243.24
807.01	243.10
807.33	243.14
807.65	242.33
807.97	243.52
808.28	243.33
808.60	243.76
808.92	243.29
809.24	244.90
809.56	244.71
809.88	243.81
810.20	244.24
810.52	244.81
810.84	244.19
811.16	244.10
811.48	244.10
811.80	244.95
812.12	245.05
812.43	245.62
812.75	245.81
813.07	245.43
813.39	245.71
813.71	245.33
814.03	245.24
814.35	245.33
814.67	244.10
814.98	243.48
815.30	243.38
815.62	243.10
815.94	241.48
816.26	242.43
816.58	242.43
816.89	242.24
817.21	241.48
817.53	241.86
817.85	241.57
818.17	241.19
818.48	240.00
818.80	240.52
819.12	240.29
819.44	240.00
819.76	239.76
820.07	239.48
820.39	239.33
820.71	239.29
821.03	239.19
821.34	238.95
821.66	239.52
821.98	239.52
822.30	239.10
822.61	240.95
822.93	239.95
823.25	239.71
823.57	239.57
823.88	240.33
824.20	240.29
824.52	240.90
824.83	240.90
825.15	240.76
825.47	240.76
825.79	240.90
826.10	240.71
826.42	240.71
826.74	240.81
827.05	240.95
827.37	241.57
827.69	241.38
828.00	241.81
828.32	242.00
828.64	241.67
828.95	243.48
829.27	242.67
829.58	242.71
829.90	243.05
830.22	243.29
830.53	242.38
830.85	242.33
831.17	241.76
831.48	242.24
831.80	242.48
832.11	241.86
832.43	241.62
832.75	241.62
833.06	243.24
833.38	242.90
833.69	243.00
834.01	243.19
834.32	243.43
834.64	243.52
834.96	243.33
835.27	243.52
835.59	242.43
835.90	241.81
836.22	241.52
836.53	241.38
836.85	241.24
837.16	244.19
837.48	244.24
837.79	245.24
838.11	245.05
838.42	245.10
838.74	245.95
839.05	245.90
839.37	245.67
839.68	244.38
840.00	244.24
840.31	244.29
840.63	243.71
840.94	243.38
841.26	243.05
841.57	243.14
841.88	243.43
842.20	243.14
842.51	243.29
842.83	243.38
843.14	245.57
843.46	245.43
843.77	244.00
844.08	243.95
844.40	243.10
844.71	243.14
845.03	242.90
845.34	242.76
845.65	242.57
845.97	242.62
846.28	242.48
846.60	242.57
846.91	242.05
847.22	242.29
847.54	243.10
847.85	243.24
848.16	243.05
848.48	242.52
848.79	243.57
849.10	243.38
849.42	243.38
849.73	241.14
850.04	240.90
850.36	240.00
850.67	240.29
850.98	240.38
851.30	240.14
851.61	240.14
851.92	239.95
852.23	240.67
852.55	240.76
852.86	241.14
853.17	241.57
853.49	242.33
853.80	242.48
854.11	242.43
854.42	242.62
854.74	242.24
855.05	242.48
855.36	241.29
855.67	241.43
855.99	241.43
856.30	243.95
856.61	244.38
856.92	244.33
857.23	244.14
857.55	244.05
857.86	244.19
858.17	244.62
858.48	244.05
858.79	243.81
859.11	244.05
859.42	243.67
859.73	243.24
860.04	242.90
860.35	242.24
860.66	241.10
860.98	241.05
861.29	241.43
861.60	241.10
861.91	241.67
862.22	241.43
862.53	241.10
862.84	238.43
863.16	239.00
863.47	238.43
863.78	238.33
864.09	238.62
864.40	238.43
864.71	238.29
865.02	238.86
865.33	238.29
865.64	238.00
865.95	237.95
866.27	239.52
866.58	239.81
866.89	239.90
867.20	240.29
867.51	240.00
867.82	240.19
868.13	241.00
868.44	240.62
868.75	240.67
869.06	240.86
869.37	241.19
869.68	239.71
869.99	240.38
870.30	240.52
870.61	240.33
870.92	240.29
871.23	239.95
871.54	240.19
871.85	240.81
872.16	241.14
872.47	241.33
872.78	239.81
873.09	239.81
873.40	239.90
873.71	240.10
874.02	239.95
874.33	239.43
874.64	238.86
874.95	239.00
875.26	238.86
875.56	239.10
875.87	238.71
876.18	239.14
876.49	241.33
876.80	240.95
877.11	240.57
877.42	240.86
877.73	240.95
878.04	240.57
878.35	240.81
878.66	240.90
878.96	240.67
879.27	240.86
879.58	240.71
879.89	240.43
880.20	241.14
880.51	240.81
880.82	241.00
881.12	241.43
881.43	240.95
881.74	240.33
882.05	239.95
882.36	239.90
882.67	240.19
882.97	237.76
883.28	237.67
883.59	237.81
883.90	238.14
884.21	238.62
884.51	238.48
884.82	237.76
885.13	237.19
885.44	236.90
885.74	236.67
886.05	236.57
886.36	236.81
886.67	235.86
886.98	237.52
887.28	237.76
887.59	237.48
887.90	237.67
888.20	237.95
888.51	238.38
888.82	238.48
889.13	238.86
889.43	241.10
889.74	241.14
890.05	241.05
890.35	241.00
890.66	240.81
890.97	240.67
891.28	240.48
891.58	240.90
891.89	241.14
892.20	241.05
892.50	240.90
892.81	240.76
893.12	240.81
893.42	239.57
893.73	239.38
894.04	239.24
894.34	239.33
894.65	239.33
894.95	238.90
895.26	238.81
895.57	239.71
895.87	237.48
896.18	237.90
896.48	238.14
896.79	237.57
897.10	237.71
897.40	237.86
897.71	238.48
898.01	238.05
898.32	238.62
898.63	238.81
898.93	238.95
899.24	238.67
899.54	238.43
899.85	238.43
900.15	238.24
900.46	238.33
900.76	238.86
901.07	238.71
901.38	239.05
901.68	239.52
901.99	238.10
902.29	237.95
902.60	237.67
902.90	237.19
903.21	237.00
903.51	236.71
903.82	237.24
904.12	237.00
904.43	237.38
904.73	237.00
905.03	237.05
905.34	239.33
905.64	239.24
905.95	239.43
906.25	239.29
906.56	239.29
906.86	239.38
907.17	238.67
907.47	239.05
907.77	238.43
908.08	237.62
908.38	238.00
908.69	238.10
908.99	238.38
909.30	238.62
909.60	238.76
909.90	239.00
910.21	238.24
910.51	237.86
910.81	237.71
911.12	237.86
911.42	237.48
911.73	235.19
912.03	235.90
912.33	236.38
912.64	236.43
912.94	236.43
913.24	236.00
913.55	236.19
913.85	235.86
914.15	236.71
914.46	237.48
914.76	237.24
915.06	237.38
915.37	236.76
915.67	236.71
915.97	236.90
916.27	236.19
916.58	236.71
916.88	236.81
917.18	236.86
917.49	238.48
917.79	238.52
918.09	238.67
918.39	239.05
918.70	238.67
919.00	238.67
919.30	240.19
919.60	240.10
919.91	239.90
920.21	240.38
920.51	239.90
920.81	239.71
921.12	240.10
921.42	239.86
921.72	240.29
922.02	240.52
922.32	240.67
922.63	240.95
922.93	241.90
923.23	242.00
923.53	241.62
923.83	240.05
924.13	240.62
924.44	240.95
924.74	241.38
925.04	242.14
925.34	242.19
925.64	241.05
925.94	240.95
926.24	242.52
926.55	242.29
926.85	242.38
927.15	242.57
927.45	242.10
927.75	242.19
928.05	242.19
928.35	241.95
928.65	242.48
928.95	242.62
929.26	241.62
929.56	242.05
929.86	242.62
930.16	242.33
930.46	241.81
930.76	241.67
931.06	240.52
931.36	240.10
931.66	240.52
931.96	240.48
932.26	240.67
932.56	239.29
932.86	239.43
933.16	239.81
933.46	239.33
933.76	239.38
934.06	240.10
934.36	241.05
934.66	241.29
934.96	241.00
935.26	241.10
935.56	241.62
935.86	241.24
936.16	240.90
936.46	240.81
936.76	240.86
937.06	240.38
937.36	240.67
937.66	240.33
937.96	240.14
938.26	239.71
938.56	239.81
938.86	240.10
939.16	240.38
939.46	240.29
939.76	240.57
940.06	240.48
940.35	239.48
940.65	238.14
940.95	238.00
941.25	237.33
941.55	237.38
941.85	237.10
942.15	237.43
942.45	238.19
942.75	238.38
943.04	238.38
943.34	238.76
943.64	238.62
943.94	238.57
944.24	238.48
944.54	238.90
944.84	238.71
945.13	238.14
945.43	238.14
945.73	238.14
946.03	237.76
946.33	237.48
946.62	237.24
946.92	237.33
947.22	237.76
947.52	237.95
947.82	237.90
948.11	237.62
948.41	237.24
948.71	236.24
949.01	236.10
949.31	235.86
949.60	235.71
949.90	236.00
950.20	235.71
950.50	235.62
950.79	235.29
951.09	235.76
951.39	236.19
951.69	235.67
951.98	236.29
952.28	236.90
952.58	236.95
952.87	237.38
953.17	237.71
953.47	237.24
953.76	236.81
954.06	236.38
954.36	235.81
954.66	235.71
954.95	236.24
955.25	236.38
955.55	236.81
955.84	236.62
956.14	236.52
956.44	237.00
956.73	236.76
957.03	236.67
957.32	236.33
957.62	236.05
957.92	236.38
958.21	235.76
958.51	238.24
958.81	238.48
959.10	238.71
959.40	239.14
959.69	239.43
959.99	240.10
960.29	240.48
960.58	240.62
960.88	241.43
961.17	241.33
961.47	241.57
961.76	241.19
962.06	241.76
962.36	241.33
962.65	241.33
962.95	241.62
963.24	241.48
963.54	241.81
963.83	241.90
964.13	241.67
964.42	241.00
964.72	238.67
965.01	238.86
965.31	238.67
965.60	238.24
965.90	239.86
966.19	239.24
966.49	239.19
966.78	239.48
967.08	239.14
967.37	239.19
967.67	238.76
967.96	239.43
968.26	239.38
968.55	239.90
968.85	239.81
969.14	239.81
969.43	239.86
969.73	239.57
970.02	239.24
970.32	239.52
970.61	239.67
970.91	238.90
971.20	238.38
971.49	238.00
971.79	238.14
972.08	236.19
972.38	236.33
972.67	235.95
972.96	236.05
973.26	235.67
973.55	236.43
973.85	236.48
974.14	236.10
974.43	236.00
974.73	235.62
975.02	235.52
975.31	235.67
975.61	235.48
975.90	235.29
976.19	235.48
976.49	235.43
976.78	235.86
977.07	236.19
977.37	236.33
977.66	236.62
977.95	236.24
978.24	236.19
978.54	236.86
978.83	237.05
979.12	237.10
979.42	237.38
979.71	236.76
980.00	236.52
980.29	236.90
980.59	236.43
980.88	237.29
981.17	236.95
981.46	236.81
981.76	237.14
982.05	238.14
982.34	238.24
982.63	238.29
982.93	238.29
983.22	238.62
983.51	238.86
983.80	239.48
984.09	239.90
984.39	240.10
984.68	240.00
984.97	240.14
985.26	239.57
985.55	239.43
985.85	238.95
986.14	239.48
986.43	239.52
986.72	239.38
987.01	238.52
987.30	238.71
987.59	238.76
987.89	238.86
988.18	237.76
988.47	237.71
988.76	237.71
989.05	237.48
989.34	237.10
989.63	237.67
989.92	237.57
990.22	237.33
990.51	237.43
990.80	237.00
991.09	237.29
991.38	237.86
991.67	237.90
991.96	238.00
992.25	238.19
992.54	237.71
992.83	237.86
993.12	238.05
993.41	238.76
993.70	239.52
993.99	240.00
994.28	240.38
994.58	240.67
994.87	240.38
995.16	240.52
995.45	240.67
995.74	239.95
996.03	240.10
996.32	240.48
996.61	240.95
996.90	241.00
997.19	240.76
997.48	240.71
997.77	240.52
998.06	240.48
998.34	240.05
998.63	239.95
998.92	239.95
999.21	239.95
999.50	239.71
999.79	238.76
1000.08	238.71
1000.37	238.71
1000.66	238.43
1000.95	238.90
1001.24	238.81
1001.53	239.00
1001.82	239.24
1002.11	238.48
1002.40	238.86
1002.68	239.00
1002.97	241.00
1003.26	240.86
1003.55	240.33
1003.84	240.33
1004.13	241.33
1004.42	241.19
1004.71	241.38
1004.99	241.38
1005.28	241.71
1005.57	241.43
1005.86	241.52
1006.15	241.19
1006.44	241.10
1006.72	241.33
1007.01	240.62
1007.30	240.71
1007.59	240.43
1007.88	239.95
1008.17	240.05
1008.45	239.05
1008.74	238.24
1009.03	236.71
1009.32	236.57
1009.60	236.62
1009.89	236.33
1010.18	235.29
1010.47	235.43
1010.76	235.38
1011.04	235.52
1011.33	235.00
1011.62	235.29
1011.91	235.38
1012.19	235.57
1012.48	235.52
1012.77	235.52
1013.05	237.19
1013.34	237.10
1013.63	237.00
1013.92	237.29
1014.20	236.71
1014.49	237.10
1014.78	237.52
1015.06	236.86
1015.35	236.57
1015.64	237.19
1015.92	237.95
1016.21	238.05
1016.50	237.95
1016.78	238.19
1017.07	237.95
1017.36	238.05
1017.64	237.67
1017.93	237.62
1018.22	237.19
1018.50	237.29
1018.79	237.19
1019.08	235.95
1019.36	236.19
1019.65	235.95
1019.93	236.62
1020.22	237.24
1020.51	238.29
1020.79	237.81
1021.08	233.00
1021.36	235.00
1021.65	238.00
1021.94	239.00
1022.22	241.00
1022.51	231.00
1022.79	250.00
1023.08	237.00
1023.36	264.00
1023.65	230.00
>>>>>End Processed Spectral Data<<<<<
