SpectraSuite Data File
++++++++++++++++++++++++++++++++++++
Date: Wed Nov 07 18:32:45 EST 2012
User: group
Dark Spectrum Present: No
Reference Spectrum Present: No
Number of Sampled Component Spectra: 1
Spectrometers: USB2E7196
Integration Time (usec): 1000000 (USB2E7196)
Spectra Averaged: 1 (USB2E7196)
Boxcar Smoothing: 10 (USB2E7196)
Correct for Electrical Dark: No (USB2E7196)
Strobe/Lamp Enabled: No (USB2E7196)
Correct for Detector Non-linearity: No (USB2E7196)
Correct for Stray Light: No (USB2E7196)
Number of Pixels in Processed Spectrum: 2048
>>>>>Begin Processed Spectral Data<<<<<
339.09	0.00
339.48	231.00
339.86	226.00
340.24	224.00
340.63	223.00
341.01	271.00
341.39	228.00
341.78	244.00
342.16	244.00
342.54	233.00
342.93	226.00
343.31	237.10
343.69	237.19
344.07	237.33
344.46	238.10
344.84	238.81
345.22	237.14
345.60	237.57
345.99	237.05
346.37	236.48
346.75	236.57
347.13	236.33
347.52	236.62
347.90	237.48
348.28	237.52
348.66	237.95
349.05	237.19
349.43	237.33
349.81	237.52
350.19	238.10
350.57	237.71
350.96	238.43
351.34	238.67
351.72	238.57
352.10	238.76
352.48	238.24
352.87	237.90
353.25	237.71
353.63	237.43
354.01	237.57
354.39	237.76
354.77	237.76
355.15	238.33
355.54	237.86
355.92	237.00
356.30	236.86
356.68	238.24
357.06	238.33
357.44	238.10
357.82	237.90
358.20	237.67
358.58	237.62
358.97	237.19
359.35	237.57
359.73	237.95
360.11	237.71
360.49	238.05
360.87	238.33
361.25	238.62
361.63	239.57
362.01	239.71
362.39	239.57
362.77	239.71
363.15	239.86
363.53	239.81
363.91	239.86
364.29	239.71
364.67	237.57
365.05	237.38
365.43	237.71
365.81	237.95
366.19	238.76
366.57	239.90
366.95	239.86
367.33	239.33
367.71	239.52
368.09	239.86
368.47	239.76
368.85	239.71
369.23	240.48
369.61	239.57
369.99	240.29
370.37	240.95
370.75	242.10
371.13	241.29
371.51	240.71
371.89	241.19
372.27	241.57
372.65	241.95
373.03	242.00
373.41	241.81
373.78	241.86
374.16	240.71
374.54	239.43
374.92	239.24
375.30	239.43
375.68	238.90
376.06	239.52
376.44	239.57
376.82	239.57
377.19	239.19
377.57	239.10
377.95	238.43
378.33	238.19
378.71	236.67
379.09	236.86
379.47	237.62
379.84	237.52
380.22	236.95
380.60	236.19
380.98	236.33
381.36	236.52
381.73	236.43
382.11	237.19
382.49	237.71
382.87	237.67
383.25	237.57
383.62	240.81
384.00	240.38
384.38	240.52
384.76	241.10
385.13	242.05
385.51	242.38
385.89	242.00
386.27	241.76
386.64	242.57
387.02	242.57
387.40	242.29
387.78	242.29
388.15	242.57
388.53	242.81
388.91	242.86
389.29	242.48
389.66	242.71
390.04	242.14
390.42	242.38
390.79	242.76
391.17	242.90
391.55	239.81
391.92	239.52
392.30	239.81
392.68	239.33
393.05	239.19
393.43	239.29
393.81	239.67
394.18	239.24
394.56	238.90
394.94	239.62
395.31	239.38
395.69	240.33
396.06	240.81
396.44	241.10
396.82	240.76
397.19	242.19
397.57	241.95
397.95	242.19
398.32	241.81
398.70	242.00
399.07	242.43
399.45	242.52
399.82	242.76
400.20	242.48
400.58	242.76
400.95	241.86
401.33	242.38
401.70	244.29
402.08	244.81
402.45	245.05
402.83	245.33
403.20	246.10
403.58	245.76
403.95	246.52
404.33	246.90
404.71	247.19
405.08	248.29
405.46	248.71
405.83	249.38
406.21	249.71
406.58	250.05
406.96	250.10
407.33	250.67
407.70	251.57
408.08	254.05
408.45	254.43
408.83	255.52
409.20	255.86
409.58	254.86
409.95	256.19
410.33	256.90
410.70	257.29
411.08	258.33
411.45	259.57
411.82	259.90
412.20	261.71
412.57	264.67
412.95	264.29
413.32	266.14
413.69	267.24
414.07	269.19
414.44	271.00
414.82	273.52
415.19	276.57
415.56	278.81
415.94	279.48
416.31	282.67
416.68	285.43
417.06	289.05
417.43	293.14
417.81	296.43
418.18	300.48
418.55	304.48
418.93	308.29
419.30	312.57
419.67	317.48
420.04	322.00
420.42	326.29
420.79	333.67
421.16	338.95
421.54	346.71
421.91	352.90
422.28	359.19
422.66	365.71
423.03	373.43
423.40	380.33
423.77	388.00
424.15	395.43
424.52	403.19
424.89	412.10
425.26	419.76
425.64	427.19
426.01	435.62
426.38	444.29
426.75	454.29
427.13	463.24
427.50	472.76
427.87	482.71
428.24	492.24
428.61	500.81
428.99	512.52
429.36	522.43
429.73	533.81
430.10	546.14
430.47	558.48
430.85	569.62
431.22	582.43
431.59	597.67
431.96	610.76
432.33	624.86
432.70	637.76
433.08	654.05
433.45	670.29
433.82	685.71
434.19	702.67
434.56	718.48
434.93	733.71
435.30	749.76
435.68	766.81
436.05	782.76
436.42	799.14
436.79	814.14
437.16	830.86
437.53	847.38
437.90	863.48
438.27	879.86
438.64	896.29
439.01	912.19
439.38	924.71
439.75	938.05
440.13	954.29
440.50	969.19
440.87	980.81
441.24	991.29
441.61	1004.33
441.98	1013.86
442.35	1024.38
442.72	1036.48
443.09	1048.57
443.46	1054.33
443.83	1058.90
444.20	1062.52
444.57	1067.24
444.94	1068.90
445.31	1072.14
445.68	1076.86
446.05	1075.86
446.42	1072.43
446.79	1070.33
447.16	1067.19
447.53	1064.86
447.90	1055.62
448.27	1047.48
448.64	1037.38
449.01	1030.52
449.37	1017.95
449.74	1005.81
450.11	994.33
450.48	977.95
450.85	960.90
451.22	948.57
451.59	936.24
451.96	923.19
452.33	907.95
452.70	893.62
453.07	875.81
453.43	856.05
453.80	839.86
454.17	824.76
454.54	808.76
454.91	792.00
455.28	776.29
455.65	762.14
456.02	751.95
456.38	738.57
456.75	723.62
457.12	710.81
457.49	698.52
457.86	684.52
458.23	675.90
458.59	664.24
458.96	652.10
459.33	642.10
459.70	632.24
460.07	623.76
460.43	614.48
460.80	606.38
461.17	598.10
461.54	591.33
461.91	583.90
462.27	576.00
462.64	569.71
463.01	562.05
463.38	556.57
463.74	545.29
464.11	539.14
464.48	534.19
464.85	528.05
465.21	524.24
465.58	519.48
465.95	513.05
466.32	508.67
466.68	503.76
467.05	499.10
467.42	494.38
467.78	489.33
468.15	484.67
468.52	481.24
468.88	477.33
469.25	472.29
469.62	469.29
469.98	466.19
470.35	463.48
470.72	460.33
471.08	455.71
471.45	453.90
471.82	451.81
472.18	448.81
472.55	447.05
472.92	443.24
473.28	440.81
473.65	437.86
474.02	435.48
474.38	434.24
474.75	432.48
475.11	430.19
475.48	429.19
475.85	427.67
476.21	425.43
476.58	424.00
476.94	423.19
477.31	422.00
477.67	420.86
478.04	419.67
478.41	419.57
478.77	421.71
479.14	420.19
479.50	419.76
479.87	419.76
480.23	419.62
480.60	419.71
480.96	419.95
481.33	421.67
481.69	422.14
482.06	422.24
482.42	423.29
482.79	424.52
483.15	425.14
483.52	426.71
483.88	427.52
484.25	428.33
484.61	429.71
484.98	430.05
485.34	432.19
485.71	433.95
486.07	435.05
486.44	434.52
486.80	435.71
487.17	436.81
487.53	438.86
487.90	440.86
488.26	443.76
488.62	446.05
488.99	447.00
489.35	449.14
489.72	450.95
490.08	452.10
490.44	453.29
490.81	454.76
491.17	456.29
491.54	458.95
491.90	462.00
492.26	463.76
492.63	466.81
492.99	468.57
493.36	471.10
493.72	474.29
494.08	476.48
494.45	480.00
494.81	484.19
495.17	486.67
495.54	490.24
495.90	492.71
496.26	495.95
496.63	499.67
496.99	502.81
497.35	507.10
497.72	511.38
498.08	515.76
498.44	520.05
498.80	524.90
499.17	529.38
499.53	533.71
499.89	538.52
500.26	543.05
500.62	547.71
500.98	552.43
501.34	556.86
501.71	562.10
502.07	567.19
502.43	571.57
502.79	575.90
503.16	580.14
503.52	585.05
503.88	589.05
504.24	594.71
504.60	601.05
504.97	606.48
505.33	612.05
505.69	618.43
506.05	624.19
506.41	629.33
506.78	634.00
507.14	639.24
507.50	645.00
507.86	650.48
508.22	656.19
508.59	660.52
508.95	666.10
509.31	672.76
509.67	677.76
510.03	682.57
510.39	688.62
510.75	693.62
511.12	699.33
511.48	704.95
511.84	709.52
512.20	713.86
512.56	718.48
512.92	722.76
513.28	727.67
513.64	732.24
514.00	736.67
514.37	741.76
514.73	745.76
515.09	750.10
515.45	754.62
515.81	758.29
516.17	763.57
516.53	767.19
516.89	770.05
517.25	774.76
517.61	780.05
517.97	784.38
518.33	789.19
518.69	793.14
519.05	797.52
519.41	801.38
519.77	806.00
520.13	810.00
520.49	813.10
520.85	815.71
521.21	820.19
521.57	823.76
521.93	826.24
522.29	829.29
522.65	831.05
523.01	833.33
523.37	835.86
523.73	838.29
524.09	841.19
524.45	842.95
524.81	844.81
525.17	846.43
525.53	847.90
525.89	849.95
526.25	851.19
526.61	852.48
526.97	853.90
527.33	854.86
527.68	857.90
528.04	860.19
528.40	861.48
528.76	861.86
529.12	862.29
529.48	864.86
529.84	866.29
530.20	868.19
530.56	870.19
530.91	871.90
531.27	872.67
531.63	873.90
531.99	875.05
532.35	875.38
532.71	876.43
533.07	877.81
533.42	881.67
533.78	882.10
534.14	883.38
534.50	884.05
534.86	885.14
535.21	884.43
535.57	886.00
535.93	886.62
536.29	888.43
536.65	890.86
537.00	890.95
537.36	892.62
537.72	895.38
538.08	897.81
538.44	899.76
538.79	903.05
539.15	904.24
539.51	907.71
539.87	910.67
540.22	912.52
540.58	914.57
540.94	913.90
541.29	917.90
541.65	919.29
542.01	922.76
542.37	924.76
542.72	925.86
543.08	925.67
543.44	927.05
543.79	926.48
544.15	926.76
544.51	927.67
544.87	926.86
545.22	925.48
545.58	923.38
545.94	921.52
546.29	918.95
546.65	917.57
547.01	913.81
547.36	912.48
547.72	910.14
548.07	907.62
548.43	904.43
548.79	899.81
549.14	896.90
549.50	893.10
549.86	888.67
550.21	885.95
550.57	883.86
550.92	880.52
551.28	879.19
551.64	876.00
551.99	873.19
552.35	871.05
552.70	867.52
553.06	865.10
553.41	863.10
553.77	862.33
554.13	860.29
554.48	859.00
554.84	855.81
555.19	854.14
555.55	854.05
555.90	853.24
556.26	852.10
556.61	850.29
556.97	846.86
557.32	845.81
557.68	843.00
558.03	841.29
558.39	839.86
558.74	837.67
559.10	836.00
559.45	834.33
559.81	832.76
560.16	831.95
560.52	830.86
560.87	829.00
561.23	826.71
561.58	827.00
561.94	825.95
562.29	824.10
562.64	822.67
563.00	818.24
563.35	816.05
563.71	814.29
564.06	811.86
564.42	810.62
564.77	809.67
565.12	808.62
565.48	809.81
565.83	808.24
566.19	806.05
566.54	804.24
566.89	802.43
567.25	801.52
567.60	800.81
567.96	801.14
568.31	801.48
568.66	800.90
569.02	797.57
569.37	795.71
569.72	794.90
570.08	792.52
570.43	792.10
570.78	790.00
571.14	789.24
571.49	788.19
571.84	787.86
572.20	785.95
572.55	785.19
572.90	780.57
573.26	779.71
573.61	778.43
573.96	778.05
574.31	777.29
574.67	774.81
575.02	773.67
575.37	770.76
575.72	768.10
576.08	765.38
576.43	763.67
576.78	762.67
577.13	761.19
577.49	761.48
577.84	760.19
578.19	758.52
578.54	757.29
578.90	756.62
579.25	754.67
579.60	753.43
579.95	752.43
580.30	751.38
580.66	749.52
581.01	748.57
581.36	746.43
581.71	744.67
582.06	744.86
582.42	743.14
582.77	741.10
583.12	739.95
583.47	738.19
583.82	736.52
584.17	734.48
584.53	733.38
584.88	730.29
585.23	728.71
585.58	726.71
585.93	724.00
586.28	722.57
586.63	721.05
586.98	719.00
587.34	717.00
587.69	714.52
588.04	713.00
588.39	710.14
588.74	707.10
589.09	704.95
589.44	700.90
589.79	698.00
590.14	695.43
590.49	692.19
590.84	689.10
591.19	686.67
591.54	683.90
591.89	680.14
592.25	679.48
592.60	675.71
592.95	673.67
593.30	671.00
593.65	667.10
594.00	663.81
594.35	667.38
594.70	663.38
595.05	660.67
595.40	657.57
595.75	654.62
596.10	652.14
596.45	649.05
596.80	646.52
597.15	643.48
597.50	640.48
597.85	638.67
598.19	636.43
598.54	634.19
598.89	630.67
599.24	627.67
599.59	623.00
599.94	620.10
600.29	617.29
600.64	614.90
600.99	613.76
601.34	611.81
601.69	602.71
602.04	600.67
602.39	598.10
602.74	595.86
603.08	594.10
603.43	592.57
603.78	590.71
604.13	588.52
604.48	587.00
604.83	586.00
605.18	585.29
605.53	584.90
605.87	586.05
606.22	590.10
606.57	594.67
606.92	599.81
607.27	605.76
607.62	611.24
607.96	616.86
608.31	621.19
608.66	624.33
609.01	628.10
609.36	631.33
609.70	635.19
610.05	638.05
610.40	640.71
610.75	642.76
611.10	644.48
611.44	645.81
611.79	646.48
612.14	646.62
612.49	644.43
612.83	642.14
613.18	638.43
613.53	632.48
613.88	625.62
614.22	617.29
614.57	609.24
614.92	600.19
615.27	591.81
615.61	583.76
615.96	577.38
616.31	569.86
616.65	563.90
617.00	556.90
617.35	550.76
617.70	544.67
618.04	538.86
618.39	533.48
618.74	529.29
619.08	524.76
619.43	520.57
619.78	516.57
620.12	513.76
620.47	510.95
620.82	508.52
621.16	505.71
621.51	504.95
621.85	502.00
622.20	501.10
622.55	498.33
622.89	495.71
623.24	493.67
623.59	491.95
623.93	490.19
624.28	488.71
624.62	489.43
624.97	488.52
625.32	486.76
625.66	484.90
626.01	483.29
626.35	481.48
626.70	479.48
627.04	478.81
627.39	477.05
627.73	475.81
628.08	473.62
628.43	471.67
628.77	468.29
629.12	465.67
629.46	462.86
629.81	460.67
630.15	458.52
630.50	456.38
630.84	454.05
631.19	451.24
631.53	448.67
631.88	443.90
632.22	440.05
632.57	438.29
632.91	436.48
633.26	433.43
633.60	431.29
633.95	428.81
634.29	425.71
634.64	423.05
634.98	420.10
635.32	418.29
635.67	416.48
636.01	414.76
636.36	413.33
636.70	412.19
637.05	410.19
637.39	408.67
637.73	407.24
638.08	406.10
638.42	404.24
638.77	403.33
639.11	401.52
639.45	400.48
639.80	398.52
640.14	396.43
640.49	395.19
640.83	393.52
641.17	392.67
641.52	391.24
641.86	390.43
642.20	390.05
642.55	388.24
642.89	387.14
643.23	386.19
643.58	386.14
643.92	384.10
644.26	383.48
644.61	382.43
644.95	381.19
645.29	379.86
645.64	379.95
645.98	378.62
646.32	378.33
646.66	377.14
647.01	375.86
647.35	375.33
647.69	374.67
648.04	374.14
648.38	373.05
648.72	372.62
649.06	371.33
649.41	369.86
649.75	369.14
650.09	368.67
650.43	367.24
650.78	365.10
651.12	364.19
651.46	362.62
651.80	361.10
652.14	359.57
652.49	358.62
652.83	357.10
653.17	355.76
653.51	353.81
653.85	352.62
654.20	352.14
654.54	350.48
654.88	348.71
655.22	346.81
655.56	345.24
655.90	344.19
656.25	343.52
656.59	342.43
656.93	341.48
657.27	340.52
657.61	339.57
657.95	339.24
658.29	338.29
658.64	338.48
658.98	338.38
659.32	337.62
659.66	337.10
660.00	336.19
660.34	335.38
660.68	335.00
661.02	334.57
661.36	333.33
661.70	332.90
662.05	332.38
662.39	332.81
662.73	333.00
663.07	333.95
663.41	333.05
663.75	331.76
664.09	331.10
664.43	329.81
664.77	329.24
665.11	328.19
665.45	327.38
665.79	326.76
666.13	325.38
666.47	324.76
666.81	324.19
667.15	322.81
667.49	322.52
667.83	322.00
668.17	321.00
668.51	320.43
668.85	320.14
669.19	320.57
669.53	319.24
669.87	318.14
670.21	315.81
670.55	315.19
670.89	315.76
671.23	314.71
671.57	314.14
671.91	313.71
672.25	313.29
672.58	313.76
672.92	312.67
673.26	312.71
673.60	312.10
673.94	311.24
674.28	311.10
674.62	310.95
674.96	310.24
675.30	309.95
675.64	309.67
675.97	308.52
676.31	307.24
676.65	306.48
676.99	306.67
677.33	306.10
677.67	305.38
678.01	303.76
678.34	303.48
678.68	303.76
679.02	302.76
679.36	302.29
679.70	300.67
680.04	299.90
680.37	299.57
680.71	298.90
681.05	298.62
681.39	298.24
681.73	297.52
682.06	296.81
682.40	296.19
682.74	295.71
683.08	296.52
683.42	296.05
683.75	296.29
684.09	295.19
684.43	295.00
684.77	294.76
685.10	294.52
685.44	294.57
685.78	293.48
686.12	293.14
686.45	292.57
686.79	292.29
687.13	292.43
687.46	291.52
687.80	291.81
688.14	291.10
688.48	290.90
688.81	290.57
689.15	291.48
689.49	290.90
689.82	290.67
690.16	288.95
690.50	288.76
690.83	287.76
691.17	286.90
691.51	286.14
691.84	286.05
692.18	285.52
692.52	284.38
692.85	284.52
693.19	285.38
693.52	284.81
693.86	284.19
694.20	283.48
694.53	283.57
694.87	282.86
695.21	282.57
695.54	281.86
695.88	280.95
696.21	279.14
696.55	279.14
696.88	278.38
697.22	278.14
697.56	278.00
697.89	277.52
698.23	277.86
698.56	277.62
698.90	277.29
699.23	276.90
699.57	277.00
699.90	276.19
700.24	275.00
700.58	275.29
700.91	276.19
701.25	278.19
701.58	278.67
701.92	279.48
702.25	279.71
702.59	280.10
702.92	280.48
703.26	281.43
703.59	281.67
703.93	284.57
704.26	285.57
704.60	286.14
704.93	286.86
705.26	286.86
705.60	287.43
705.93	287.67
706.27	288.95
706.60	289.76
706.94	291.29
707.27	291.29
707.61	291.62
707.94	291.71
708.27	290.00
708.61	289.14
708.94	288.67
709.28	288.38
709.61	288.00
709.94	287.57
710.28	286.71
710.61	286.14
710.95	283.00
711.28	283.81
711.61	282.76
711.95	282.19
712.28	280.90
712.61	279.86
712.95	280.14
713.28	279.95
713.61	278.57
713.95	276.52
714.28	275.57
714.61	274.52
714.95	272.71
715.28	271.29
715.61	270.76
715.95	269.90
716.28	268.86
716.61	268.29
716.95	267.81
717.28	267.24
717.61	266.86
717.94	266.38
718.28	264.14
718.61	263.52
718.94	262.81
719.27	262.71
719.61	262.81
719.94	261.71
720.27	260.19
720.60	259.38
720.94	259.33
721.27	259.86
721.60	260.38
721.93	260.76
722.27	261.43
722.60	261.14
722.93	260.86
723.26	260.90
723.59	260.48
723.93	260.38
724.26	260.24
724.59	259.86
724.92	260.05
725.25	260.62
725.59	260.14
725.92	260.33
726.25	260.24
726.58	259.90
726.91	259.71
727.24	260.24
727.57	260.57
727.91	260.00
728.24	259.81
728.57	259.10
728.90	259.05
729.23	258.29
729.56	259.19
729.89	258.76
730.22	258.57
730.55	258.05
730.89	258.00
731.22	257.86
731.55	257.52
731.88	257.48
732.21	256.90
732.54	256.81
732.87	256.62
733.20	256.76
733.53	256.76
733.86	256.62
734.19	255.95
734.52	256.48
734.85	258.33
735.18	258.00
735.51	258.29
735.84	258.29
736.17	258.90
736.50	257.71
736.83	260.57
737.16	260.52
737.49	260.81
737.82	260.48
738.15	260.95
738.48	261.05
738.81	260.57
739.14	260.05
739.47	260.19
739.80	259.81
740.13	259.76
740.46	259.33
740.79	259.00
741.12	258.86
741.45	258.33
741.78	257.10
742.11	257.48
742.44	257.10
742.77	257.38
743.10	257.10
743.43	257.10
743.75	254.81
744.08	258.14
744.41	257.95
744.74	257.90
745.07	257.24
745.40	257.62
745.73	258.71
746.06	258.81
746.39	258.76
746.71	258.62
747.04	258.19
747.37	258.14
747.70	258.67
748.03	258.90
748.36	259.38
748.68	259.19
749.01	258.71
749.34	258.67
749.67	258.43
750.00	258.48
750.33	260.24
750.65	260.19
750.98	256.81
751.31	256.48
751.64	256.57
751.97	257.81
752.29	257.43
752.62	256.10
752.95	255.81
753.28	255.57
753.60	255.76
753.93	256.33
754.26	256.24
754.59	255.33
754.91	254.67
755.24	254.29
755.57	253.90
755.90	253.43
756.22	253.19
756.55	252.67
756.88	252.05
757.20	249.95
757.53	249.38
757.86	249.14
758.19	249.52
758.51	249.14
758.84	248.19
759.17	247.90
759.49	247.86
759.82	249.05
760.15	249.19
760.47	248.62
760.80	247.95
761.13	248.29
761.45	248.05
761.78	247.90
762.11	247.57
762.43	247.38
762.76	247.38
763.08	247.43
763.41	247.57
763.74	248.00
764.06	247.81
764.39	248.00
764.71	248.05
765.04	247.52
765.37	247.48
765.69	247.19
766.02	247.19
766.34	247.33
766.67	246.52
767.00	247.00
767.32	248.76
767.65	250.33
767.97	250.19
768.30	250.62
768.62	250.90
768.95	251.10
769.27	251.00
769.60	251.29
769.92	250.90
770.25	250.19
770.57	249.57
770.90	249.48
771.22	248.86
771.55	248.62
771.87	249.00
772.20	248.95
772.52	250.81
772.85	253.52
773.17	253.48
773.50	253.14
773.82	252.86
774.15	251.14
774.47	249.57
774.80	249.00
775.12	248.86
775.45	248.67
775.77	248.48
776.09	248.81
776.42	249.05
776.74	249.67
777.07	249.90
777.39	249.76
777.72	249.86
778.04	250.24
778.36	250.38
778.69	250.33
779.01	250.38
779.33	248.24
779.66	245.38
779.98	245.29
780.31	245.33
780.63	246.10
780.95	246.90
781.28	246.90
781.60	247.00
781.92	246.76
782.25	247.00
782.57	247.10
782.89	246.57
783.22	246.33
783.54	245.62
783.86	245.76
784.19	245.57
784.51	246.48
784.83	245.86
785.16	245.48
785.48	245.57
785.80	245.38
786.12	245.67
786.45	245.62
786.77	245.33
787.09	245.24
787.42	244.24
787.74	244.19
788.06	244.10
788.38	243.86
788.71	243.81
789.03	243.67
789.35	243.29
789.67	243.10
789.99	243.05
790.32	242.90
790.64	243.33
790.96	245.29
791.28	244.24
791.61	244.24
791.93	244.57
792.25	244.38
792.57	245.90
792.89	245.24
793.21	245.57
793.54	245.57
793.86	245.38
794.18	245.62
794.50	245.10
794.82	244.90
795.14	245.24
795.47	245.43
795.79	245.43
796.11	245.33
796.43	245.43
796.75	245.38
797.07	245.67
797.39	245.33
797.71	243.67
798.04	244.00
798.36	244.33
798.68	244.52
799.00	244.57
799.32	243.19
799.64	243.95
799.96	243.67
800.28	244.29
800.60	244.38
800.92	244.57
801.24	244.62
801.56	244.81
801.89	244.57
802.21	244.38
802.53	244.19
802.85	244.52
803.17	245.71
803.49	245.00
803.81	244.67
804.13	244.29
804.45	243.86
804.77	244.10
805.09	244.00
805.41	243.71
805.73	243.29
806.05	243.33
806.37	242.95
806.69	243.33
807.01	242.90
807.33	242.81
807.65	241.57
807.97	242.33
808.28	242.10
808.60	241.95
808.92	242.14
809.24	243.71
809.56	243.52
809.88	242.71
810.20	243.33
810.52	243.86
810.84	243.90
811.16	243.90
811.48	243.52
811.80	244.10
812.12	243.90
812.43	244.62
812.75	244.38
813.07	244.10
813.39	243.86
813.71	243.57
814.03	243.24
814.35	243.62
814.67	243.00
814.98	243.10
815.30	243.38
815.62	242.76
815.94	240.76
816.26	241.86
816.58	241.14
816.89	240.81
817.21	240.38
817.53	240.48
817.85	240.52
818.17	240.48
818.48	239.52
818.80	239.95
819.12	239.38
819.44	239.19
819.76	239.00
820.07	239.00
820.39	238.86
820.71	239.19
821.03	239.19
821.34	238.95
821.66	239.14
821.98	239.24
822.30	239.43
822.61	241.05
822.93	240.05
823.25	240.05
823.57	240.00
823.88	240.33
824.20	240.38
824.52	240.76
824.83	240.67
825.15	240.81
825.47	240.67
825.79	241.00
826.10	240.95
826.42	241.10
826.74	241.10
827.05	241.05
827.37	241.00
827.69	241.00
828.00	241.00
828.32	241.00
828.64	240.90
828.95	242.33
829.27	241.81
829.58	241.71
829.90	242.33
830.22	242.43
830.53	241.95
830.85	241.57
831.17	241.14
831.48	241.43
831.80	241.62
832.11	241.14
832.43	240.67
832.75	240.95
833.06	242.00
833.38	241.33
833.69	241.43
834.01	241.76
834.32	241.67
834.64	241.52
834.96	241.71
835.27	241.57
835.59	240.67
835.90	239.76
836.22	239.90
836.53	239.14
836.85	239.10
837.16	241.43
837.48	241.52
837.79	242.48
838.11	242.43
838.42	242.19
838.74	242.81
839.05	242.67
839.37	242.10
839.68	240.86
840.00	241.05
840.31	241.38
840.63	240.95
840.94	240.57
841.26	240.43
841.57	240.05
841.88	240.29
842.20	239.81
842.51	239.95
842.83	239.71
843.14	242.38
843.46	242.48
843.77	241.24
844.08	241.14
844.40	240.29
844.71	239.95
845.03	239.90
845.34	239.57
845.65	239.67
845.97	240.14
846.28	240.67
846.60	240.86
846.91	240.62
847.22	240.62
847.54	241.33
847.85	241.43
848.16	241.33
848.48	241.10
848.79	242.19
849.10	242.71
849.42	242.86
849.73	240.33
850.04	240.00
850.36	239.33
850.67	239.95
850.98	239.95
851.30	240.05
851.61	239.81
851.92	239.86
852.23	240.76
852.55	240.86
852.86	240.86
853.17	241.00
853.49	241.19
853.80	241.71
854.11	241.62
854.42	242.24
854.74	241.95
855.05	241.95
855.36	240.71
855.67	240.48
855.99	240.43
856.30	243.43
856.61	243.67
856.92	243.86
857.23	243.48
857.55	243.19
857.86	242.86
858.17	243.52
858.48	243.29
858.79	242.48
859.11	242.62
859.42	242.29
859.73	242.29
860.04	242.38
860.35	241.43
860.66	241.00
860.98	240.81
861.29	241.33
861.60	241.10
861.91	241.81
862.22	241.57
862.53	241.52
862.84	238.81
863.16	239.14
863.47	238.33
863.78	238.43
864.09	239.00
864.40	239.24
864.71	239.14
865.02	239.48
865.33	239.29
865.64	238.76
865.95	238.81
866.27	240.71
866.58	240.48
866.89	240.95
867.20	240.71
867.51	240.38
867.82	240.19
868.13	240.95
868.44	240.29
868.75	240.38
869.06	240.10
869.37	240.29
869.68	239.67
869.99	240.62
870.30	240.76
870.61	240.67
870.92	240.52
871.23	240.33
871.54	240.81
871.85	241.33
872.16	241.62
872.47	241.48
872.78	239.71
873.09	240.10
873.40	239.57
873.71	239.95
874.02	240.00
874.33	239.90
874.64	239.29
874.95	239.71
875.26	239.67
875.56	239.76
875.87	239.57
876.18	239.52
876.49	241.43
876.80	241.10
877.11	240.67
877.42	240.86
877.73	240.67
878.04	240.00
878.35	240.00
878.66	240.05
878.96	240.19
879.27	239.90
879.58	239.38
879.89	239.38
880.20	240.19
880.51	240.05
880.82	239.90
881.12	240.10
881.43	239.76
881.74	239.29
882.05	239.24
882.36	239.48
882.67	239.67
882.97	237.14
883.28	236.95
883.59	236.90
883.90	237.24
884.21	238.10
884.51	238.14
884.82	237.81
885.13	237.76
885.44	237.57
885.74	237.38
886.05	237.38
886.36	237.48
886.67	236.57
886.98	238.05
887.28	238.48
887.59	238.33
887.90	238.38
888.20	238.33
888.51	239.14
888.82	238.52
889.13	238.86
889.43	240.76
889.74	240.67
890.05	240.57
890.35	240.05
890.66	239.33
890.97	238.81
891.28	238.62
891.58	238.71
891.89	238.67
892.20	238.90
892.50	238.95
892.81	238.81
893.12	238.71
893.42	237.29
893.73	237.57
894.04	237.71
894.34	237.67
894.65	237.76
894.95	237.05
895.26	237.29
895.57	238.33
895.87	236.38
896.18	236.90
896.48	237.19
896.79	237.24
897.10	237.62
897.40	237.95
897.71	238.57
898.01	238.43
898.32	238.90
898.63	238.86
898.93	239.29
899.24	239.52
899.54	239.43
899.85	239.10
900.15	238.81
900.46	238.67
900.76	238.95
901.07	239.05
901.38	239.05
901.68	239.57
901.99	238.10
902.29	238.05
902.60	237.67
902.90	237.43
903.21	237.57
903.51	237.57
903.82	237.90
904.12	237.52
904.43	237.62
904.73	237.33
905.03	237.14
905.34	239.33
905.64	239.43
905.95	239.67
906.25	239.90
906.56	239.67
906.86	239.90
907.17	239.62
907.47	239.67
907.77	239.48
908.08	238.67
908.38	239.00
908.69	239.38
908.99	239.81
909.30	240.24
909.60	240.14
909.90	239.90
910.21	239.52
910.51	239.00
910.81	238.86
911.12	239.19
911.42	239.62
911.73	236.71
912.03	237.14
912.33	237.57
912.64	237.52
912.94	237.24
913.24	236.76
913.55	236.62
913.85	236.67
914.15	237.24
914.46	237.76
914.76	237.38
915.06	237.29
915.37	236.90
915.67	236.57
915.97	236.57
916.27	236.52
916.58	236.19
916.88	236.57
917.18	236.52
917.49	238.10
917.79	237.62
918.09	238.14
918.39	238.00
918.70	237.81
919.00	237.90
919.30	239.29
919.60	239.38
919.91	239.29
920.21	239.05
920.51	238.62
920.81	238.05
921.12	238.67
921.42	238.52
921.72	238.76
922.02	238.86
922.32	239.24
922.63	239.19
922.93	241.10
923.23	241.05
923.53	240.52
923.83	238.90
924.13	239.24
924.44	239.33
924.74	240.19
925.04	240.81
925.34	240.62
925.64	239.43
925.94	239.33
926.24	241.00
926.55	241.05
926.85	241.29
927.15	241.43
927.45	241.43
927.75	241.19
928.05	241.38
928.35	241.57
928.65	241.90
928.95	242.05
929.26	240.95
929.56	241.43
929.86	242.38
930.16	242.00
930.46	242.10
930.76	242.29
931.06	241.05
931.36	240.24
931.66	240.48
931.96	240.95
932.26	241.10
932.56	239.86
932.86	240.24
933.16	240.33
933.46	240.33
933.76	239.81
934.06	240.33
934.36	241.05
934.66	240.52
934.96	240.24
935.26	240.05
935.56	240.57
935.86	240.29
936.16	239.57
936.46	239.67
936.76	239.62
937.06	239.14
937.36	239.19
937.66	239.38
937.96	239.38
938.26	238.67
938.56	238.81
938.86	239.00
939.16	239.24
939.46	239.33
939.76	239.81
940.06	240.00
940.35	239.33
940.65	238.00
940.95	238.52
941.25	237.86
941.55	237.86
941.85	237.48
942.15	237.57
942.45	238.33
942.75	238.24
943.04	238.24
943.34	238.43
943.64	238.33
943.94	238.10
944.24	238.10
944.54	238.67
944.84	238.38
945.13	238.05
945.43	237.52
945.73	237.38
946.03	236.76
946.33	236.38
946.62	236.67
946.92	236.62
947.22	236.86
947.52	237.14
947.82	237.33
948.11	236.81
948.41	236.48
948.71	235.71
949.01	235.76
949.31	235.38
949.60	235.71
949.90	236.24
950.20	235.95
950.50	236.00
950.79	235.62
951.09	236.05
951.39	236.14
951.69	236.05
951.98	236.14
952.28	236.48
952.58	236.67
952.87	236.48
953.17	236.95
953.47	236.76
953.76	236.57
954.06	236.24
954.36	236.00
954.66	235.76
954.95	236.62
955.25	236.90
955.55	237.33
955.84	236.62
956.14	236.62
956.44	236.81
956.73	236.33
957.03	236.62
957.32	236.62
957.62	236.33
957.92	236.76
958.21	236.76
958.51	239.52
958.81	239.81
959.10	240.14
959.40	240.76
959.69	240.48
959.99	240.95
960.29	241.14
960.58	241.33
960.88	242.48
961.17	242.19
961.47	242.33
961.76	241.86
962.06	242.48
962.36	242.33
962.65	242.38
962.95	242.81
963.24	242.43
963.54	242.48
963.83	242.81
964.13	242.71
964.42	242.14
964.72	240.33
965.01	240.29
965.31	240.19
965.60	239.33
965.90	240.95
966.19	240.19
966.49	240.19
966.78	239.90
967.08	239.67
967.37	239.71
967.67	239.00
967.96	239.24
968.26	238.86
968.55	239.33
968.85	239.33
969.14	239.19
969.43	239.38
969.73	238.86
970.02	238.43
970.32	238.14
970.61	238.19
970.91	237.19
971.20	236.90
971.49	236.81
971.79	237.00
972.08	235.24
972.38	235.62
972.67	235.38
972.96	235.52
973.26	235.00
973.55	235.57
973.85	235.76
974.14	235.86
974.43	236.24
974.73	235.33
975.02	235.10
975.31	234.86
975.61	234.52
975.90	234.81
976.19	234.86
976.49	235.38
976.78	235.86
977.07	235.86
977.37	235.95
977.66	236.00
977.95	235.57
978.24	235.76
978.54	236.33
978.83	236.48
979.12	236.38
979.42	236.43
979.71	235.76
980.00	235.67
980.29	235.71
980.59	235.05
980.88	235.95
981.17	235.81
981.46	236.10
981.76	236.24
982.05	236.67
982.34	237.05
982.63	236.76
982.93	236.62
983.22	237.43
983.51	237.24
983.80	237.52
984.09	237.95
984.39	237.95
984.68	237.71
984.97	237.81
985.26	238.00
985.55	238.38
985.85	238.29
986.14	238.62
986.43	239.05
986.72	239.10
987.01	238.62
987.30	239.00
987.59	238.76
987.89	239.19
988.18	238.33
988.47	237.67
988.76	237.57
989.05	237.43
989.34	237.00
989.63	238.14
989.92	238.05
990.22	238.05
990.51	237.95
990.80	237.76
991.09	237.95
991.38	238.19
991.67	237.90
991.96	237.33
992.25	237.71
992.54	237.14
992.83	237.05
993.12	236.90
993.41	237.19
993.70	238.48
993.99	238.71
994.28	239.52
994.58	240.10
994.87	240.05
995.16	239.95
995.45	239.67
995.74	238.67
996.03	239.05
996.32	239.19
996.61	239.62
996.90	239.71
997.19	239.43
997.48	239.33
997.77	239.14
998.06	239.62
998.34	239.19
998.63	239.24
998.92	239.48
999.21	239.95
999.50	239.90
999.79	239.10
1000.08	238.86
1000.37	238.86
1000.66	238.57
1000.95	239.14
1001.24	239.05
1001.53	239.48
1001.82	239.67
1002.11	239.14
1002.40	239.62
1002.68	240.43
1002.97	242.19
1003.26	241.95
1003.55	241.57
1003.84	241.81
1004.13	242.57
1004.42	242.52
1004.71	242.48
1004.99	242.29
1005.28	242.14
1005.57	241.95
1005.86	241.52
1006.15	241.43
1006.44	240.81
1006.72	241.57
1007.01	241.10
1007.30	241.43
1007.59	241.33
1007.88	241.10
1008.17	241.00
1008.45	240.00
1008.74	239.29
1009.03	237.95
1009.32	238.10
1009.60	238.14
1009.89	237.95
1010.18	236.95
1010.47	236.81
1010.76	236.81
1011.04	236.76
1011.33	236.81
1011.62	237.10
1011.91	237.19
1012.19	237.19
1012.48	237.19
1012.77	236.95
1013.05	238.19
1013.34	237.95
1013.63	237.71
1013.92	238.00
1014.20	237.81
1014.49	238.19
1014.78	238.14
1015.06	237.48
1015.35	237.57
1015.64	237.95
1015.92	238.29
1016.21	238.52
1016.50	238.33
1016.78	238.62
1017.07	238.95
1017.36	238.76
1017.64	238.62
1017.93	238.81
1018.22	238.76
1018.50	239.19
1018.79	238.76
1019.08	237.43
1019.36	237.86
1019.65	237.71
1019.93	237.90
1020.22	238.29
1020.51	239.57
1020.79	239.00
1021.08	237.00
1021.36	241.00
1021.65	235.00
1021.94	236.00
1022.22	243.00
1022.51	235.00
1022.79	244.00
1023.08	239.00
1023.36	266.00
1023.65	230.00
>>>>>End Processed Spectral Data<<<<<
