SpectraSuite Data File
++++++++++++++++++++++++++++++++++++
Date: Wed Nov 07 18:32:56 EST 2012
User: group
Dark Spectrum Present: No
Reference Spectrum Present: No
Number of Sampled Component Spectra: 1
Spectrometers: USB2E7196
Integration Time (usec): 1000000 (USB2E7196)
Spectra Averaged: 1 (USB2E7196)
Boxcar Smoothing: 10 (USB2E7196)
Correct for Electrical Dark: No (USB2E7196)
Strobe/Lamp Enabled: No (USB2E7196)
Correct for Detector Non-linearity: No (USB2E7196)
Correct for Stray Light: No (USB2E7196)
Number of Pixels in Processed Spectrum: 2048
>>>>>Begin Processed Spectral Data<<<<<
339.09	0.00
339.48	222.00
339.86	226.00
340.24	220.00
340.63	228.00
341.01	269.00
341.39	228.00
341.78	235.00
342.16	245.00
342.54	235.00
342.93	225.38
343.31	236.71
343.69	237.48
344.07	237.86
344.46	238.81
344.84	239.24
345.22	237.57
345.60	237.86
345.99	238.10
346.37	237.71
346.75	237.71
347.13	237.48
347.52	237.86
347.90	238.62
348.28	238.86
348.66	239.57
349.05	238.71
349.43	239.00
349.81	239.48
350.19	239.14
350.57	239.24
350.96	239.57
351.34	239.67
351.72	239.71
352.10	240.14
352.48	239.67
352.87	239.90
353.25	240.05
353.63	240.05
354.01	239.71
354.39	239.86
354.77	239.81
355.15	240.67
355.54	240.14
355.92	239.05
356.30	238.86
356.68	239.95
357.06	239.95
357.44	239.19
357.82	238.95
358.20	239.24
358.58	239.33
358.97	238.76
359.35	239.24
359.73	239.38
360.11	239.05
360.49	239.24
360.87	238.81
361.25	238.81
361.63	239.57
362.01	239.71
362.39	239.19
362.77	239.14
363.15	238.90
363.53	238.81
363.91	239.43
364.29	239.62
364.67	237.52
365.05	237.81
365.43	238.24
365.81	238.57
366.19	239.57
366.57	240.38
366.95	240.19
367.33	239.48
367.71	239.57
368.09	239.71
368.47	239.76
368.85	239.62
369.23	240.19
369.61	239.48
369.99	240.19
370.37	240.76
370.75	242.24
371.13	241.71
371.51	241.52
371.89	241.76
372.27	241.86
372.65	242.00
373.03	242.05
373.41	242.10
373.78	241.71
374.16	240.29
374.54	239.43
374.92	239.52
375.30	239.48
375.68	238.90
376.06	239.19
376.44	239.05
376.82	239.43
377.19	239.43
377.57	239.43
377.95	238.52
378.33	238.52
378.71	237.29
379.09	238.14
379.47	238.38
379.84	237.76
380.22	237.48
380.60	237.05
380.98	237.14
381.36	237.19
381.73	237.24
382.11	238.00
382.49	238.10
382.87	238.10
383.25	238.05
383.62	240.76
384.00	239.90
384.38	240.33
384.76	240.86
385.13	241.62
385.51	241.57
385.89	241.67
386.27	241.67
386.64	241.62
387.02	241.24
387.40	241.38
387.78	241.57
388.15	241.62
388.53	241.76
388.91	241.33
389.29	241.00
389.66	241.14
390.04	240.71
390.42	241.52
390.79	241.43
391.17	241.67
391.55	239.19
391.92	239.81
392.30	239.86
392.68	239.33
393.05	239.10
393.43	239.33
393.81	239.76
394.18	239.48
394.56	239.67
394.94	240.00
395.31	239.95
395.69	240.81
396.06	241.10
396.44	241.29
396.82	241.29
397.19	242.52
397.57	242.48
397.95	242.81
398.32	241.71
398.70	242.33
399.07	242.67
399.45	242.57
399.82	242.57
400.20	242.48
400.58	242.52
400.95	241.90
401.33	242.33
401.70	243.52
402.08	243.86
402.45	244.05
402.83	244.62
403.20	244.90
403.58	244.67
403.95	245.14
404.33	245.52
404.71	245.95
405.08	247.29
405.46	247.48
405.83	247.90
406.21	248.57
406.58	248.67
406.96	249.00
407.33	249.52
407.70	250.33
408.08	252.81
408.45	253.48
408.83	254.24
409.20	254.43
409.58	254.10
409.95	255.05
410.33	255.95
410.70	255.86
411.08	257.05
411.45	258.33
411.82	259.48
412.20	261.10
412.57	263.71
412.95	263.24
413.32	264.95
413.69	266.29
414.07	268.10
414.44	269.86
414.82	272.29
415.19	275.43
415.56	277.52
415.94	278.00
416.31	281.00
416.68	283.76
417.06	287.52
417.43	291.24
417.81	294.90
418.18	298.62
418.55	303.00
418.93	307.24
419.30	311.05
419.67	315.67
420.04	320.19
420.42	324.57
420.79	332.38
421.16	338.33
421.54	345.48
421.91	352.29
422.28	358.43
422.66	364.19
423.03	372.24
423.40	379.48
423.77	387.81
424.15	394.95
424.52	402.81
424.89	411.38
425.26	418.81
425.64	426.00
426.01	434.19
426.38	442.48
426.75	452.19
427.13	461.52
427.50	470.81
427.87	480.57
428.24	490.05
428.61	497.48
428.99	508.48
429.36	519.52
429.73	530.19
430.10	541.57
430.47	554.76
430.85	565.57
431.22	578.52
431.59	593.86
431.96	607.67
432.33	621.81
432.70	635.48
433.08	651.76
433.45	667.95
433.82	684.00
434.19	701.52
434.56	716.76
434.93	732.57
435.30	747.81
435.68	764.95
436.05	782.33
436.42	799.33
436.79	815.24
437.16	831.71
437.53	848.86
437.90	866.57
438.27	882.24
438.64	899.24
439.01	914.71
439.38	926.29
439.75	939.52
440.13	955.33
440.50	970.38
440.87	981.57
441.24	993.14
441.61	1005.95
441.98	1015.19
442.35	1027.05
442.72	1038.48
443.09	1051.19
443.46	1057.48
443.83	1061.81
444.20	1065.48
444.57	1068.90
444.94	1069.29
445.31	1070.90
445.68	1075.10
446.05	1075.57
446.42	1072.48
446.79	1070.14
447.16	1066.38
447.53	1063.19
447.90	1055.29
448.27	1046.48
448.64	1036.76
449.01	1029.67
449.37	1017.81
449.74	1005.71
450.11	993.57
450.48	978.52
450.85	961.05
451.22	947.33
451.59	934.43
451.96	921.62
452.33	905.86
452.70	892.10
453.07	875.71
453.43	855.62
453.80	838.57
454.17	821.52
454.54	805.86
454.91	789.95
455.28	774.33
455.65	759.90
456.02	750.00
456.38	737.48
456.75	721.81
457.12	708.48
457.49	695.81
457.86	681.24
458.23	670.95
458.59	660.33
458.96	649.81
459.33	638.76
459.70	628.67
460.07	621.33
460.43	612.00
460.80	603.90
461.17	595.90
461.54	588.81
461.91	582.48
462.27	575.00
462.64	568.76
463.01	562.05
463.38	555.81
463.74	544.90
464.11	538.90
464.48	533.71
464.85	527.86
465.21	524.43
465.58	520.43
465.95	514.62
466.32	509.71
466.68	504.19
467.05	499.86
467.42	495.71
467.78	490.81
468.15	486.29
468.52	482.76
468.88	478.71
469.25	473.95
469.62	470.90
469.98	467.10
470.35	463.76
470.72	460.67
471.08	456.29
471.45	453.48
471.82	451.00
472.18	447.57
472.55	445.24
472.92	441.14
473.28	437.90
473.65	434.67
474.02	432.71
474.38	431.67
474.75	429.90
475.11	427.24
475.48	426.19
475.85	424.57
476.21	422.86
476.58	421.86
476.94	420.90
477.31	419.90
477.67	418.71
478.04	417.81
478.41	416.86
478.77	419.14
479.14	418.43
479.50	418.10
479.87	418.71
480.23	419.05
480.60	419.33
480.96	420.10
481.33	421.95
481.69	422.19
482.06	422.33
482.42	423.33
482.79	424.90
483.15	425.19
483.52	427.14
483.88	427.43
484.25	428.29
484.61	429.43
484.98	430.24
485.34	432.67
485.71	434.90
486.07	436.48
486.44	435.86
486.80	437.24
487.17	438.62
487.53	440.62
487.90	441.86
488.26	444.67
488.62	446.71
488.99	447.62
489.35	449.76
489.72	452.10
490.08	453.81
490.44	455.33
490.81	457.57
491.17	459.10
491.54	461.57
491.90	464.29
492.26	466.86
492.63	469.00
492.99	470.43
493.36	472.24
493.72	475.29
494.08	477.67
494.45	481.71
494.81	485.62
495.17	488.24
495.54	492.24
495.90	494.81
496.26	498.29
496.63	502.86
496.99	506.19
497.35	509.43
497.72	514.00
498.08	517.52
498.44	521.71
498.80	527.10
499.17	531.48
499.53	536.19
499.89	540.62
500.26	545.43
500.62	550.90
500.98	556.76
501.34	560.67
501.71	565.62
502.07	569.81
502.43	574.67
502.79	579.67
503.16	584.14
503.52	589.76
503.88	593.71
504.24	598.19
504.60	603.43
504.97	609.57
505.33	613.95
505.69	620.76
506.05	625.86
506.41	629.81
506.78	634.67
507.14	639.48
507.50	645.33
507.86	650.86
508.22	655.62
508.59	659.90
508.95	666.43
509.31	672.95
509.67	678.05
510.03	682.86
510.39	688.24
510.75	694.43
511.12	699.29
511.48	704.81
511.84	709.52
512.20	715.14
512.56	719.57
512.92	724.62
513.28	729.24
513.64	733.48
514.00	739.10
514.37	744.38
514.73	748.71
515.09	753.76
515.45	758.14
515.81	763.14
516.17	767.33
516.53	770.90
516.89	773.81
517.25	778.19
517.61	782.71
517.97	786.33
518.33	789.00
518.69	792.86
519.05	796.95
519.41	800.67
519.77	805.76
520.13	808.67
520.49	811.62
520.85	814.05
521.21	819.33
521.57	822.76
521.93	825.24
522.29	829.29
522.65	830.57
523.01	833.52
523.37	835.43
523.73	838.48
524.09	840.90
524.45	843.24
524.81	844.95
525.17	847.81
525.53	850.33
525.89	851.52
526.25	853.81
526.61	854.71
526.97	856.52
527.33	856.52
527.68	860.71
528.04	862.43
528.40	864.86
528.76	865.76
529.12	866.57
529.48	868.86
529.84	869.24
530.20	870.86
530.56	872.67
530.91	874.71
531.27	876.67
531.63	878.43
531.99	879.81
532.35	880.86
532.71	880.81
533.07	881.43
533.42	886.24
533.78	887.00
534.14	889.10
534.50	890.00
534.86	891.86
535.21	891.29
535.57	892.52
535.93	892.76
536.29	893.90
536.65	895.67
537.00	897.33
537.36	899.43
537.72	901.86
538.08	903.86
538.44	905.48
538.79	906.86
539.15	908.90
539.51	910.81
539.87	913.29
540.22	915.38
540.58	917.43
540.94	917.29
541.29	919.57
541.65	921.33
542.01	924.43
542.37	925.81
542.72	926.48
543.08	928.24
543.44	928.86
543.79	927.86
544.15	927.38
544.51	927.43
544.87	926.33
545.22	925.43
545.58	923.10
545.94	921.29
546.29	919.81
546.65	916.67
547.01	914.52
547.36	911.38
547.72	908.86
548.07	906.33
548.43	902.52
548.79	898.52
549.14	895.29
549.50	892.10
549.86	888.19
550.21	885.86
550.57	882.81
550.92	879.57
551.28	878.38
551.64	876.29
551.99	873.00
552.35	870.71
552.70	867.52
553.06	865.86
553.41	864.00
553.77	862.95
554.13	862.10
554.48	859.90
554.84	858.48
555.19	857.14
555.55	857.29
555.90	856.81
556.26	855.24
556.61	853.67
556.97	850.62
557.32	849.19
557.68	847.29
558.03	845.24
558.39	844.81
558.74	841.52
559.10	839.67
559.45	837.76
559.81	835.62
560.16	834.00
560.52	831.57
560.87	828.86
561.23	825.90
561.58	826.00
561.94	824.19
562.29	822.90
562.64	820.48
563.00	816.67
563.35	814.14
563.71	812.33
564.06	810.24
564.42	809.38
564.77	807.48
565.12	806.10
565.48	806.81
565.83	805.00
566.19	804.05
566.54	802.05
566.89	800.81
567.25	800.43
567.60	800.48
567.96	802.24
568.31	802.81
568.66	802.24
569.02	798.95
569.37	798.14
569.72	797.52
570.08	796.90
570.43	795.14
570.78	793.38
571.14	792.19
571.49	791.29
571.84	789.57
572.20	788.67
572.55	786.81
572.90	783.14
573.26	781.33
573.61	780.14
573.96	778.81
574.31	777.38
574.67	776.00
575.02	773.71
575.37	770.05
575.72	768.33
576.08	766.29
576.43	764.52
576.78	762.76
577.13	760.81
577.49	758.81
577.84	758.48
578.19	758.29
578.54	757.14
578.90	756.38
579.25	755.90
579.60	754.71
579.95	753.48
580.30	753.00
580.66	752.71
581.01	751.24
581.36	750.05
581.71	748.52
582.06	747.95
582.42	747.10
582.77	744.81
583.12	743.24
583.47	741.57
583.82	740.62
584.17	740.14
584.53	739.33
584.88	737.86
585.23	736.86
585.58	733.90
585.93	731.86
586.28	729.43
586.63	726.67
586.98	724.14
587.34	721.90
587.69	718.90
588.04	716.43
588.39	713.95
588.74	711.48
589.09	709.95
589.44	705.48
589.79	702.67
590.14	700.24
590.49	696.38
590.84	692.48
591.19	689.19
591.54	685.38
591.89	680.71
592.25	679.33
592.60	674.52
592.95	672.52
593.30	670.33
593.65	667.19
594.00	664.05
594.35	668.24
594.70	665.38
595.05	662.57
595.40	659.19
595.75	655.57
596.10	652.76
596.45	649.48
596.80	646.67
597.15	643.57
597.50	640.52
597.85	639.00
598.19	636.48
598.54	633.67
598.89	630.38
599.24	628.19
599.59	623.86
599.94	621.48
600.29	619.24
600.64	616.29
600.99	614.71
601.34	612.57
601.69	603.57
602.04	600.71
602.39	598.33
602.74	596.05
603.08	595.10
603.43	594.05
603.78	591.90
604.13	590.38
604.48	588.67
604.83	588.19
605.18	586.57
605.53	587.62
605.87	589.38
606.22	593.29
606.57	598.00
606.92	603.19
607.27	609.43
607.62	614.57
607.96	620.00
608.31	623.62
608.66	628.05
609.01	631.14
609.36	635.00
609.70	638.19
610.05	641.14
610.40	643.00
610.75	644.62
611.10	646.24
611.44	647.43
611.79	647.71
612.14	646.71
612.49	644.81
612.83	642.00
613.18	637.29
613.53	631.52
613.88	624.52
614.22	616.57
614.57	607.38
614.92	598.29
615.27	589.95
615.61	582.67
615.96	574.90
616.31	568.33
616.65	562.52
617.00	556.43
617.35	550.14
617.70	544.43
618.04	538.57
618.39	533.33
618.74	529.24
619.08	524.81
619.43	521.33
619.78	518.33
620.12	515.52
620.47	513.14
620.82	510.19
621.16	506.81
621.51	505.38
621.85	503.48
622.20	502.05
622.55	499.62
622.89	496.86
623.24	495.10
623.59	492.67
623.93	490.43
624.28	488.57
624.62	488.81
624.97	488.29
625.32	486.24
625.66	484.48
626.01	482.52
626.35	481.67
626.70	480.24
627.04	480.05
627.39	478.00
627.73	477.10
628.08	475.52
628.43	473.76
628.77	470.81
629.12	468.81
629.46	466.14
629.81	463.95
630.15	462.10
630.50	459.76
630.84	457.57
631.19	455.00
631.53	452.52
631.88	447.48
632.22	443.86
632.57	442.62
632.91	439.67
633.26	437.05
633.60	433.62
633.95	431.29
634.29	427.71
634.64	425.19
634.98	422.14
635.32	420.10
635.67	417.90
636.01	415.86
636.36	413.71
636.70	412.57
637.05	410.62
637.39	408.62
637.73	406.71
638.08	405.71
638.42	403.67
638.77	402.43
639.11	401.29
639.45	399.67
639.80	397.14
640.14	396.10
640.49	394.10
640.83	393.10
641.17	391.67
641.52	389.86
641.86	389.05
642.20	388.19
642.55	385.95
642.89	385.29
643.23	384.19
643.58	384.05
643.92	381.95
644.26	381.05
644.61	380.90
644.95	380.00
645.29	378.33
645.64	377.90
645.98	376.14
646.32	376.05
646.66	375.19
647.01	374.10
647.35	373.38
647.69	373.38
648.04	372.48
648.38	371.48
648.72	370.86
649.06	369.33
649.41	368.29
649.75	368.10
650.09	367.38
650.43	366.05
650.78	363.71
651.12	362.43
651.46	361.52
651.80	360.00
652.14	358.57
652.49	357.81
652.83	356.48
653.17	355.86
653.51	353.62
653.85	353.05
654.20	352.33
654.54	350.81
654.88	349.05
655.22	347.71
655.56	346.57
655.90	345.57
656.25	344.95
656.59	343.81
656.93	342.48
657.27	342.05
657.61	341.05
657.95	340.76
658.29	340.10
658.64	339.71
658.98	338.57
659.32	338.10
659.66	337.48
660.00	337.00
660.34	336.14
660.68	335.57
661.02	334.67
661.36	333.76
661.70	333.00
662.05	332.43
662.39	332.95
662.73	332.95
663.07	333.86
663.41	333.67
663.75	332.67
664.09	332.57
664.43	331.24
664.77	330.67
665.11	330.05
665.45	329.76
665.79	329.05
666.13	328.43
666.47	327.43
666.81	326.71
667.15	325.76
667.49	325.29
667.83	325.90
668.17	325.24
668.51	324.52
668.85	324.48
669.19	324.86
669.53	323.10
669.87	321.57
670.21	319.57
670.55	319.00
670.89	319.48
671.23	318.67
671.57	318.05
671.91	317.81
672.25	317.29
672.58	317.57
672.92	316.48
673.26	315.71
673.60	315.38
673.94	314.81
674.28	314.81
674.62	314.43
674.96	313.19
675.30	312.52
675.64	311.76
675.97	311.05
676.31	309.76
676.65	309.48
676.99	310.05
677.33	309.33
677.67	308.57
678.01	306.90
678.34	306.43
678.68	306.29
679.02	305.43
679.36	304.52
679.70	303.05
680.04	302.71
680.37	302.52
680.71	302.14
681.05	301.67
681.39	300.90
681.73	300.38
682.06	299.86
682.40	299.33
682.74	299.62
683.08	300.05
683.42	299.76
683.75	299.81
684.09	298.71
684.43	298.38
684.77	297.67
685.10	297.67
685.44	297.29
685.78	296.48
686.12	296.14
686.45	295.62
686.79	295.00
687.13	295.05
687.46	294.48
687.80	294.38
688.14	293.81
688.48	293.52
688.81	293.05
689.15	293.14
689.49	292.48
689.82	291.76
690.16	290.29
690.50	289.52
690.83	288.38
691.17	287.24
691.51	286.86
691.84	286.52
692.18	286.05
692.52	285.33
692.85	285.38
693.19	285.81
693.52	285.24
693.86	284.90
694.20	284.00
694.53	283.71
694.87	282.90
695.21	282.33
695.54	282.00
695.88	280.95
696.21	279.86
696.55	279.67
696.88	279.29
697.22	278.71
697.56	278.76
697.89	278.43
698.23	278.90
698.56	278.52
698.90	278.71
699.23	278.00
699.57	278.10
699.90	277.48
700.24	276.43
700.58	277.05
700.91	277.29
701.25	279.38
701.58	280.29
701.92	281.14
702.25	281.71
702.59	281.48
702.92	282.43
703.26	283.00
703.59	283.62
703.93	285.90
704.26	287.05
704.60	287.76
704.93	288.24
705.26	288.62
705.60	289.52
705.93	289.48
706.27	290.95
706.60	291.62
706.94	293.24
707.27	293.19
707.61	293.19
707.94	293.24
708.27	291.29
708.61	290.29
708.94	290.05
709.28	289.38
709.61	289.05
709.94	288.43
710.28	287.81
710.61	287.05
710.95	284.48
711.28	284.71
711.61	283.48
711.95	283.57
712.28	282.19
712.61	281.10
712.95	281.52
713.28	281.19
713.61	279.67
713.95	277.71
714.28	277.62
714.61	276.95
714.95	276.14
715.28	275.19
715.61	274.19
715.95	273.48
716.28	272.95
716.61	272.67
716.95	272.10
717.28	271.71
717.61	271.10
717.94	270.33
718.28	268.14
718.61	267.62
718.94	266.48
719.27	266.48
719.61	266.14
719.94	264.95
720.27	263.33
720.60	263.05
720.94	262.76
721.27	262.19
721.60	262.05
721.93	261.52
722.27	262.19
722.60	262.71
722.93	261.90
723.26	261.67
723.59	261.00
723.93	261.05
724.26	260.86
724.59	260.81
724.92	261.14
725.25	262.00
725.59	262.14
725.92	262.33
726.25	261.76
726.58	262.00
726.91	262.10
727.24	262.52
727.57	262.33
727.91	261.86
728.24	262.00
728.57	261.19
728.90	261.43
729.23	260.57
729.56	261.10
729.89	261.14
730.22	260.90
730.55	260.81
730.89	260.52
731.22	259.95
731.55	259.57
731.88	259.29
732.21	258.67
732.54	257.67
732.87	257.00
733.20	257.24
733.53	256.86
733.86	256.57
734.19	256.00
734.52	256.43
734.85	257.90
735.18	257.43
735.51	258.67
735.84	258.81
736.17	259.33
736.50	257.95
736.83	260.62
737.16	260.52
737.49	260.57
737.82	260.19
738.15	260.76
738.48	260.86
738.81	260.57
739.14	260.57
739.47	260.71
739.80	260.62
740.13	261.00
740.46	260.62
740.79	260.10
741.12	260.10
741.45	259.24
741.78	257.71
742.11	258.48
742.44	257.29
742.77	257.48
743.10	257.10
743.43	257.19
743.75	254.48
744.08	257.86
744.41	257.76
744.74	257.48
745.07	256.95
745.40	257.48
745.73	258.24
746.06	257.95
746.39	258.57
746.71	258.57
747.04	257.76
747.37	257.57
747.70	258.05
748.03	258.14
748.36	258.71
748.68	258.67
749.01	257.48
749.34	257.57
749.67	257.29
750.00	257.38
750.33	259.24
750.65	259.62
750.98	256.24
751.31	256.00
751.64	256.38
751.97	257.48
752.29	256.81
752.62	255.62
752.95	255.19
753.28	254.48
753.60	254.33
753.93	255.00
754.26	254.95
754.59	253.90
754.91	253.43
755.24	252.95
755.57	253.00
755.90	252.67
756.22	252.38
756.55	252.19
756.88	251.38
757.20	249.33
757.53	248.10
757.86	248.05
758.19	247.90
758.51	247.86
758.84	246.67
759.17	246.43
759.49	246.62
759.82	247.62
760.15	247.86
760.47	247.76
760.80	246.86
761.13	247.38
761.45	247.10
761.78	246.86
762.11	246.76
762.43	246.62
762.76	247.19
763.08	247.48
763.41	247.29
763.74	247.43
764.06	247.00
764.39	247.33
764.71	247.00
765.04	247.05
765.37	246.52
765.69	246.19
766.02	246.24
766.34	245.71
766.67	244.95
767.00	245.33
767.32	246.52
767.65	248.00
767.97	247.71
768.30	248.48
768.62	248.52
768.95	248.43
769.27	248.14
769.60	248.48
769.92	248.10
770.25	247.76
770.57	247.33
770.90	247.81
771.22	247.67
771.55	248.24
771.87	248.52
772.20	248.57
772.52	250.62
772.85	253.48
773.17	254.00
773.50	254.10
773.82	253.33
774.15	251.90
774.47	250.24
774.80	249.81
775.12	249.48
775.45	249.57
775.77	249.67
776.09	250.00
776.42	249.71
776.74	250.29
777.07	250.29
777.39	250.43
777.72	249.95
778.04	250.38
778.36	249.67
778.69	249.67
779.01	250.05
779.33	247.86
779.66	244.95
779.98	244.62
780.31	244.67
780.63	246.05
780.95	247.05
781.28	247.19
781.60	247.05
781.92	246.81
782.25	246.76
782.57	246.81
782.89	246.67
783.22	246.19
783.54	245.52
783.86	245.62
784.19	245.52
784.51	246.52
784.83	246.10
785.16	246.14
785.48	245.71
785.80	245.71
786.12	246.24
786.45	246.38
786.77	246.48
787.09	246.19
787.42	245.38
787.74	244.86
788.06	244.81
788.38	244.86
788.71	244.90
789.03	244.95
789.35	244.90
789.67	244.48
789.99	244.67
790.32	244.52
790.64	244.76
790.96	246.76
791.28	245.76
791.61	245.57
791.93	245.71
792.25	245.76
792.57	247.05
792.89	246.38
793.21	246.52
793.54	246.52
793.86	246.05
794.18	246.05
794.50	245.71
794.82	246.00
795.14	246.05
795.47	246.81
795.79	246.67
796.11	246.14
796.43	246.05
796.75	246.29
797.07	246.76
797.39	246.57
797.71	244.86
798.04	245.29
798.36	245.33
798.68	245.19
799.00	245.52
799.32	244.33
799.64	244.76
799.96	244.52
800.28	244.62
800.60	244.71
800.92	244.76
801.24	244.86
801.56	245.00
801.89	244.86
802.21	244.38
802.53	244.19
802.85	245.10
803.17	246.19
803.49	245.67
803.81	245.05
804.13	244.76
804.45	244.38
804.77	244.48
805.09	244.67
805.41	244.48
805.73	243.62
806.05	243.24
806.37	243.33
806.69	243.33
807.01	243.00
807.33	243.43
807.65	242.33
807.97	243.10
808.28	242.62
808.60	242.71
808.92	242.43
809.24	244.00
809.56	243.62
809.88	243.14
810.20	243.38
810.52	244.24
810.84	243.95
811.16	243.90
811.48	243.62
811.80	244.48
812.12	244.43
812.43	245.00
812.75	244.71
813.07	244.33
813.39	244.19
813.71	243.95
814.03	243.10
814.35	243.71
814.67	242.57
814.98	242.19
815.30	242.00
815.62	241.76
815.94	239.90
816.26	240.81
816.58	240.19
816.89	240.52
817.21	239.57
817.53	239.48
817.85	239.57
818.17	239.76
818.48	238.57
818.80	239.00
819.12	238.90
819.44	238.76
819.76	238.38
820.07	238.38
820.39	238.33
820.71	238.90
821.03	238.48
821.34	238.43
821.66	239.33
821.98	239.67
822.30	239.62
822.61	241.43
822.93	240.38
823.25	240.00
823.57	239.43
823.88	239.90
824.20	239.95
824.52	240.71
824.83	240.48
825.15	240.33
825.47	240.05
825.79	240.19
826.10	239.76
826.42	239.76
826.74	240.05
827.05	240.19
827.37	240.48
827.69	240.62
828.00	240.86
828.32	240.24
828.64	239.76
828.95	241.29
829.27	240.33
829.58	240.14
829.90	240.86
830.22	241.00
830.53	240.81
830.85	241.05
831.17	239.81
831.48	239.67
831.80	239.76
832.11	239.67
832.43	239.67
832.75	240.10
833.06	241.52
833.38	240.81
833.69	240.71
834.01	240.62
834.32	240.71
834.64	240.52
834.96	240.57
835.27	240.62
835.59	239.43
835.90	238.95
836.22	239.29
836.53	238.48
836.85	238.33
837.16	240.86
837.48	240.52
837.79	241.71
838.11	241.86
838.42	241.95
838.74	242.52
839.05	242.19
839.37	242.43
839.68	241.24
840.00	241.38
840.31	241.67
840.63	241.52
840.94	241.19
841.26	241.10
841.57	241.19
841.88	241.67
842.20	241.57
842.51	241.52
842.83	241.19
843.14	243.81
843.46	243.90
843.77	242.14
844.08	242.29
844.40	241.48
844.71	241.38
845.03	241.05
845.34	240.62
845.65	240.52
845.97	240.24
846.28	240.19
846.60	240.14
846.91	239.86
847.22	239.76
847.54	240.33
847.85	240.67
848.16	240.19
848.48	239.76
848.79	240.81
849.10	241.05
849.42	241.33
849.73	238.86
850.04	238.71
850.36	238.24
850.67	238.57
850.98	238.29
851.30	238.33
851.61	238.57
851.92	238.62
852.23	239.19
852.55	239.62
852.86	239.86
853.17	239.86
853.49	240.33
853.80	240.86
854.11	241.14
854.42	241.48
854.74	241.86
855.05	241.95
855.36	240.90
855.67	240.86
855.99	241.10
856.30	244.10
856.61	244.38
856.92	244.33
857.23	244.57
857.55	244.95
857.86	244.95
858.17	245.33
858.48	245.29
858.79	244.90
859.11	245.14
859.42	245.14
859.73	245.05
860.04	245.05
860.35	244.57
860.66	243.76
860.98	243.38
861.29	243.57
861.60	243.24
861.91	243.48
862.22	243.38
862.53	242.52
862.84	239.76
863.16	240.43
863.47	240.14
863.78	239.86
864.09	239.81
864.40	239.95
864.71	239.86
865.02	240.05
865.33	240.10
865.64	239.71
865.95	239.86
866.27	241.86
866.58	241.57
866.89	242.14
867.20	242.00
867.51	241.76
867.82	241.38
868.13	242.29
868.44	242.10
868.75	242.62
869.06	242.86
869.37	243.29
869.68	242.19
869.99	242.52
870.30	242.48
870.61	242.71
870.92	242.33
871.23	242.05
871.54	242.24
871.85	242.62
872.16	242.76
872.47	242.19
872.78	240.24
873.09	240.48
873.40	239.81
873.71	240.29
874.02	240.38
874.33	240.48
874.64	239.62
874.95	239.76
875.26	239.14
875.56	239.43
875.87	239.19
876.18	239.14
876.49	241.67
876.80	241.57
877.11	241.10
877.42	241.10
877.73	241.00
878.04	240.38
878.35	240.48
878.66	240.86
878.96	241.00
879.27	241.33
879.58	241.24
879.89	240.86
880.20	241.00
880.51	241.00
880.82	241.00
881.12	241.71
881.43	241.19
881.74	240.81
882.05	240.62
882.36	240.71
882.67	240.90
882.97	237.67
883.28	237.10
883.59	237.10
883.90	237.48
884.21	237.90
884.51	237.71
884.82	237.14
885.13	236.38
885.44	236.29
885.74	236.05
886.05	236.19
886.36	236.38
886.67	235.81
886.98	236.90
887.28	237.24
887.59	236.52
887.90	236.57
888.20	236.57
888.51	236.95
888.82	236.43
889.13	236.86
889.43	239.52
889.74	239.67
890.05	239.57
890.35	238.95
890.66	238.48
890.97	238.48
891.28	238.14
891.58	238.48
891.89	238.38
892.20	238.62
892.50	238.05
892.81	238.10
893.12	238.19
893.42	236.90
893.73	236.62
894.04	237.10
894.34	237.48
894.65	237.52
894.95	237.00
895.26	237.33
895.57	238.38
895.87	235.57
896.18	236.14
896.48	236.62
896.79	236.95
897.10	237.57
897.40	238.19
897.71	238.33
898.01	238.14
898.32	238.43
898.63	238.05
898.93	238.38
899.24	238.29
899.54	238.24
899.85	238.14
900.15	237.90
900.46	237.71
900.76	237.90
901.07	238.10
901.38	238.14
901.68	238.33
901.99	237.00
902.29	237.57
902.60	237.29
902.90	236.67
903.21	236.67
903.51	236.43
903.82	236.71
904.12	237.10
904.43	237.14
904.73	237.19
905.03	237.52
905.34	239.95
905.64	239.67
905.95	239.86
906.25	240.05
906.56	240.24
906.86	240.48
907.17	240.00
907.47	239.90
907.77	239.90
908.08	239.38
908.38	239.38
908.69	239.48
908.99	239.95
909.30	240.29
909.60	240.24
909.90	240.29
910.21	239.38
910.51	238.76
910.81	238.95
911.12	239.24
911.42	239.05
911.73	236.24
912.03	236.71
912.33	236.95
912.64	236.76
912.94	236.62
913.24	235.90
913.55	236.05
913.85	235.81
914.15	236.24
914.46	236.71
914.76	236.81
915.06	236.57
915.37	236.10
915.67	235.67
915.97	235.86
916.27	235.33
916.58	235.38
916.88	235.48
917.18	235.14
917.49	236.62
917.79	236.48
918.09	237.00
918.39	237.52
918.70	237.38
919.00	237.62
919.30	238.81
919.60	238.90
919.91	238.52
920.21	238.67
920.51	237.86
920.81	237.48
921.12	237.48
921.42	237.48
921.72	237.67
922.02	238.05
922.32	238.38
922.63	238.38
922.93	239.52
923.23	239.52
923.53	239.52
923.83	237.67
924.13	238.05
924.44	238.14
924.74	238.38
925.04	239.19
925.34	239.00
925.64	237.95
925.94	238.29
926.24	240.00
926.55	239.95
926.85	240.62
927.15	240.81
927.45	240.90
927.75	240.86
928.05	241.10
928.35	240.86
928.65	241.14
928.95	241.57
929.26	240.76
929.56	241.67
929.86	242.29
930.16	242.19
930.46	242.00
930.76	241.71
931.06	241.10
931.36	240.14
931.66	241.00
931.96	241.14
932.26	241.14
932.56	240.10
932.86	240.19
933.16	240.29
933.46	240.33
933.76	239.76
934.06	240.38
934.36	241.00
934.66	241.00
934.96	240.76
935.26	241.05
935.56	241.43
935.86	240.62
936.16	240.05
936.46	240.14
936.76	240.19
937.06	240.05
937.36	240.24
937.66	240.29
937.96	239.86
938.26	239.76
938.56	239.76
938.86	239.81
939.16	240.52
939.46	240.62
939.76	240.57
940.06	240.95
940.35	240.62
940.65	239.43
940.95	239.67
941.25	238.95
941.55	238.52
941.85	238.76
942.15	239.48
942.45	240.19
942.75	239.90
943.04	240.10
943.34	241.05
943.64	240.48
943.94	240.33
944.24	240.48
944.54	240.48
944.84	240.29
945.13	240.10
945.43	239.62
945.73	239.81
946.03	239.90
946.33	239.81
946.62	239.52
946.92	239.81
947.22	240.10
947.52	240.48
947.82	240.62
948.11	240.24
948.41	239.52
948.71	238.62
949.01	238.95
949.31	238.48
949.60	237.81
949.90	238.48
950.20	238.43
950.50	238.52
950.79	238.14
951.09	238.24
951.39	237.95
951.69	237.81
951.98	238.14
952.28	237.81
952.58	237.57
952.87	237.62
953.17	237.81
953.47	237.62
953.76	237.48
954.06	237.05
954.36	236.67
954.66	236.86
954.95	237.62
955.25	237.81
955.55	238.14
955.84	237.67
956.14	237.67
956.44	237.95
956.73	237.38
957.03	237.90
957.32	238.33
957.62	238.48
957.92	238.71
958.21	238.19
958.51	241.05
958.81	241.38
959.10	241.52
959.40	241.76
959.69	241.95
959.99	242.24
960.29	242.57
960.58	242.48
960.88	243.10
961.17	242.52
961.47	242.81
961.76	242.38
962.06	243.14
962.36	242.76
962.65	242.81
962.95	243.00
963.24	242.38
963.54	242.24
963.83	242.33
964.13	242.33
964.42	241.62
964.72	239.52
965.01	239.48
965.31	239.57
965.60	239.05
965.90	240.52
966.19	239.86
966.49	239.86
966.78	239.76
967.08	239.57
967.37	239.86
967.67	239.33
967.96	239.95
968.26	239.62
968.55	239.90
968.85	239.57
969.14	239.62
969.43	239.62
969.73	239.33
970.02	239.19
970.32	238.90
970.61	238.76
970.91	238.19
971.20	237.81
971.49	237.48
971.79	237.76
972.08	235.86
972.38	236.14
972.67	235.81
972.96	236.19
973.26	235.57
973.55	236.29
973.85	236.00
974.14	235.81
974.43	236.10
974.73	235.52
975.02	235.14
975.31	235.10
975.61	235.33
975.90	234.71
976.19	234.33
976.49	234.57
976.78	234.81
977.07	234.76
977.37	234.86
977.66	234.86
977.95	234.57
978.24	234.48
978.54	235.10
978.83	235.05
979.12	234.76
979.42	234.86
979.71	234.24
980.00	234.24
980.29	234.00
980.59	233.33
980.88	233.86
981.17	234.14
981.46	233.86
981.76	233.95
982.05	235.05
982.34	235.48
982.63	235.71
982.93	236.24
983.22	236.86
983.51	237.05
983.80	237.43
984.09	237.86
984.39	238.05
984.68	237.57
984.97	238.10
985.26	237.81
985.55	237.95
985.85	237.29
986.14	237.95
986.43	238.67
986.72	238.52
987.01	237.86
987.30	237.86
987.59	237.95
987.89	238.05
988.18	237.24
988.47	237.05
988.76	236.57
989.05	236.14
989.34	235.81
989.63	236.52
989.92	236.14
990.22	235.81
990.51	235.62
990.80	235.33
991.09	235.24
991.38	235.86
991.67	235.57
991.96	235.62
992.25	235.24
992.54	234.52
992.83	234.86
993.12	235.10
993.41	235.62
993.70	236.57
993.99	236.95
994.28	237.29
994.58	237.43
994.87	237.52
995.16	237.43
995.45	237.24
995.74	236.33
996.03	236.76
996.32	236.90
996.61	237.48
996.90	237.81
997.19	237.48
997.48	237.52
997.77	237.38
998.06	237.81
998.34	237.81
998.63	237.95
998.92	238.05
999.21	238.00
999.50	238.00
999.79	236.95
1000.08	236.95
1000.37	237.10
1000.66	237.10
1000.95	237.29
1001.24	237.52
1001.53	238.10
1001.82	238.29
1002.11	237.76
1002.40	238.33
1002.68	239.10
1002.97	240.90
1003.26	240.86
1003.55	240.38
1003.84	240.67
1004.13	241.33
1004.42	241.33
1004.71	241.29
1004.99	240.81
1005.28	241.57
1005.57	241.10
1005.86	241.33
1006.15	240.90
1006.44	240.62
1006.72	240.67
1007.01	240.48
1007.30	240.52
1007.59	240.05
1007.88	240.00
1008.17	240.19
1008.45	239.10
1008.74	237.86
1009.03	236.67
1009.32	236.76
1009.60	236.67
1009.89	236.48
1010.18	235.48
1010.47	235.38
1010.76	235.38
1011.04	235.57
1011.33	235.33
1011.62	235.57
1011.91	235.62
1012.19	235.95
1012.48	236.24
1012.77	236.29
1013.05	237.48
1013.34	237.43
1013.63	237.48
1013.92	237.29
1014.20	237.29
1014.49	237.95
1014.78	238.29
1015.06	236.95
1015.35	236.86
1015.64	237.48
1015.92	237.95
1016.21	237.95
1016.50	238.05
1016.78	238.00
1017.07	238.24
1017.36	238.19
1017.64	237.95
1017.93	238.05
1018.22	237.43
1018.50	237.19
1018.79	236.90
1019.08	235.67
1019.36	235.71
1019.65	235.43
1019.93	236.10
1020.22	236.33
1020.51	237.24
1020.79	236.81
1021.08	229.00
1021.36	234.00
1021.65	233.00
1021.94	236.00
1022.22	237.00
1022.51	234.00
1022.79	245.00
1023.08	240.00
1023.36	263.00
1023.65	229.00
>>>>>End Processed Spectral Data<<<<<
