SpectraSuite Data File
++++++++++++++++++++++++++++++++++++
Date: Wed Nov 07 18:31:58 EST 2012
User: group
Dark Spectrum Present: No
Reference Spectrum Present: No
Number of Sampled Component Spectra: 1
Spectrometers: USB2E7196
Integration Time (usec): 1000000 (USB2E7196)
Spectra Averaged: 1 (USB2E7196)
Boxcar Smoothing: 10 (USB2E7196)
Correct for Electrical Dark: No (USB2E7196)
Strobe/Lamp Enabled: No (USB2E7196)
Correct for Detector Non-linearity: No (USB2E7196)
Correct for Stray Light: No (USB2E7196)
Number of Pixels in Processed Spectrum: 2048
>>>>>Begin Processed Spectral Data<<<<<
339.09	0.00
339.48	220.00
339.86	220.00
340.24	221.00
340.63	224.00
341.01	263.00
341.39	224.00
341.78	234.00
342.16	237.00
342.54	234.00
342.93	224.71
343.31	235.76
343.69	236.29
344.07	237.05
344.46	238.14
344.84	238.76
345.22	237.43
345.60	238.38
345.99	239.00
346.37	239.29
346.75	239.24
347.13	239.05
347.52	239.19
347.90	240.38
348.28	240.67
348.66	241.29
349.05	240.71
349.43	240.67
349.81	241.00
350.19	240.67
350.57	240.67
350.96	241.00
351.34	241.14
351.72	241.24
352.10	241.24
352.48	240.76
352.87	240.67
353.25	240.76
353.63	240.29
354.01	239.81
354.39	239.71
354.77	239.90
355.15	240.57
355.54	240.29
355.92	239.29
356.30	239.43
356.68	240.76
357.06	240.76
357.44	240.62
357.82	240.57
358.20	240.62
358.58	240.38
358.97	240.38
359.35	241.24
359.73	241.67
360.11	241.67
360.49	241.90
360.87	242.19
361.25	242.43
361.63	243.24
362.01	243.52
362.39	243.29
362.77	243.43
363.15	243.33
363.53	243.05
363.91	243.29
364.29	243.24
364.67	240.90
365.05	240.95
365.43	241.19
365.81	241.48
366.19	242.62
366.57	243.52
366.95	243.29
367.33	242.48
367.71	242.81
368.09	243.43
368.47	243.24
368.85	243.14
369.23	243.86
369.61	243.33
369.99	243.86
370.37	244.33
370.75	245.71
371.13	244.90
371.51	245.00
371.89	244.95
372.27	244.52
372.65	244.71
373.03	244.90
373.41	244.38
373.78	244.24
374.16	243.10
374.54	242.52
374.92	242.10
375.30	242.19
375.68	241.57
376.06	241.43
376.44	241.19
376.82	241.00
377.19	240.43
377.57	239.95
377.95	239.38
378.33	238.90
378.71	237.05
379.09	237.81
379.47	237.76
379.84	237.62
380.22	237.76
380.60	237.29
380.98	237.10
381.36	237.19
381.73	236.86
382.11	237.24
382.49	237.29
382.87	237.10
383.25	237.00
383.62	239.86
384.00	239.33
384.38	239.76
384.76	240.48
385.13	241.57
385.51	241.81
385.89	241.29
386.27	241.52
386.64	242.10
387.02	241.67
387.40	241.71
387.78	241.95
388.15	242.10
388.53	241.95
388.91	242.05
389.29	241.95
389.66	242.48
390.04	242.29
390.42	242.81
390.79	242.86
391.17	243.00
391.55	240.10
391.92	240.24
392.30	240.52
392.68	239.81
393.05	239.76
393.43	239.90
393.81	240.10
394.18	239.67
394.56	239.67
394.94	240.48
395.31	240.19
395.69	241.14
396.06	241.57
396.44	242.29
396.82	242.29
397.19	243.90
397.57	243.33
397.95	243.67
398.32	242.76
398.70	243.48
399.07	243.86
399.45	243.71
399.82	243.71
400.20	243.24
400.58	243.43
400.95	242.19
401.33	242.67
401.70	244.43
402.08	244.67
402.45	244.67
402.83	244.62
403.20	245.05
403.58	244.57
403.95	244.71
404.33	244.90
404.71	244.95
405.08	246.10
405.46	246.52
405.83	246.86
406.21	247.38
406.58	247.57
406.96	247.76
407.33	248.62
407.70	249.57
408.08	252.19
408.45	253.29
408.83	254.43
409.20	254.48
409.58	254.05
409.95	255.52
410.33	256.67
410.70	257.48
411.08	258.86
411.45	259.95
411.82	261.10
412.20	263.05
412.57	266.19
412.95	265.43
413.32	267.71
413.69	268.95
414.07	270.95
414.44	272.86
414.82	275.24
415.19	277.71
415.56	279.76
415.94	281.10
416.31	283.71
416.68	286.71
417.06	290.52
417.43	294.29
417.81	297.76
418.18	301.57
418.55	305.29
418.93	308.95
419.30	313.33
419.67	317.90
420.04	321.95
420.42	326.05
420.79	334.10
421.16	339.48
421.54	347.10
421.91	353.57
422.28	360.14
422.66	366.81
423.03	375.24
423.40	381.76
423.77	388.67
424.15	395.67
424.52	403.24
424.89	412.10
425.26	419.52
425.64	427.10
426.01	435.62
426.38	444.33
426.75	454.38
427.13	463.52
427.50	472.67
427.87	482.52
428.24	492.14
428.61	499.76
428.99	511.05
429.36	521.14
429.73	532.24
430.10	544.19
430.47	556.29
430.85	566.71
431.22	580.71
431.59	596.29
431.96	610.10
432.33	624.71
432.70	639.05
433.08	655.95
433.45	671.33
433.82	686.14
434.19	702.86
434.56	718.10
434.93	733.90
435.30	750.24
435.68	768.67
436.05	785.38
436.42	801.43
436.79	816.43
437.16	833.05
437.53	849.57
437.90	865.52
438.27	882.10
438.64	900.05
439.01	916.38
439.38	928.33
439.75	941.10
440.13	956.24
440.50	968.81
440.87	979.05
441.24	990.43
441.61	1003.76
441.98	1012.43
442.35	1023.24
442.72	1034.29
443.09	1045.57
443.46	1050.52
443.83	1053.33
444.20	1056.90
444.57	1061.29
444.94	1062.29
445.31	1064.76
445.68	1069.67
446.05	1069.38
446.42	1065.33
446.79	1061.38
447.16	1057.19
447.53	1054.81
447.90	1046.62
448.27	1038.81
448.64	1029.38
449.01	1022.71
449.37	1010.33
449.74	999.05
450.11	987.86
450.48	972.71
450.85	955.24
451.22	942.05
451.59	930.48
451.96	917.43
452.33	901.52
452.70	887.24
453.07	869.76
453.43	849.33
453.80	832.76
454.17	816.95
454.54	802.14
454.91	786.95
455.28	770.81
455.65	755.86
456.02	746.48
456.38	734.43
456.75	719.10
457.12	706.29
457.49	694.38
457.86	680.00
458.23	670.29
458.59	660.05
458.96	648.33
459.33	638.05
459.70	628.90
460.07	621.14
460.43	611.67
460.80	603.76
461.17	595.95
461.54	588.19
461.91	581.14
462.27	572.90
462.64	565.90
463.01	559.38
463.38	553.90
463.74	542.76
464.11	536.86
464.48	531.38
464.85	525.86
465.21	522.05
465.58	518.14
465.95	511.57
466.32	507.43
466.68	503.00
467.05	498.62
467.42	494.10
467.78	489.05
468.15	485.38
468.52	482.33
468.88	478.29
469.25	474.67
469.62	471.24
469.98	467.71
470.35	465.14
470.72	462.00
471.08	457.90
471.45	455.24
471.82	452.67
472.18	449.76
472.55	447.43
472.92	443.52
473.28	440.19
473.65	438.57
474.02	436.00
474.38	434.67
474.75	433.14
475.11	431.43
475.48	430.48
475.85	428.71
476.21	426.67
476.58	425.76
476.94	424.14
477.31	422.76
477.67	422.10
478.04	421.29
478.41	420.62
478.77	423.24
479.14	422.48
479.50	421.67
479.87	421.29
480.23	421.24
480.60	421.52
480.96	421.71
481.33	422.38
481.69	422.71
482.06	422.90
482.42	423.71
482.79	424.52
483.15	425.00
483.52	426.62
483.88	427.52
484.25	428.29
484.61	429.24
484.98	430.38
485.34	431.71
485.71	433.38
486.07	434.33
486.44	432.57
486.80	434.24
487.17	435.38
487.53	437.86
487.90	439.43
488.26	441.95
488.62	444.43
488.99	445.71
489.35	447.48
489.72	449.43
490.08	450.48
490.44	451.86
490.81	453.95
491.17	455.19
491.54	457.38
491.90	460.05
492.26	462.33
492.63	464.76
492.99	466.81
493.36	469.52
493.72	473.24
494.08	476.57
494.45	480.10
494.81	484.00
495.17	486.67
495.54	490.29
495.90	493.14
496.26	496.33
496.63	499.81
496.99	503.29
497.35	506.76
497.72	511.33
498.08	515.43
498.44	519.52
498.80	524.76
499.17	529.14
499.53	533.29
499.89	538.10
500.26	542.90
500.62	547.48
500.98	551.95
501.34	556.00
501.71	560.71
502.07	565.71
502.43	570.86
502.79	575.67
503.16	580.71
503.52	585.19
503.88	590.43
504.24	596.05
504.60	601.62
504.97	607.62
505.33	612.05
505.69	618.05
506.05	623.57
506.41	629.00
506.78	634.14
507.14	639.33
507.50	644.86
507.86	650.24
508.22	655.95
508.59	660.43
508.95	666.10
509.31	672.76
509.67	677.71
510.03	682.00
510.39	687.05
510.75	691.29
511.12	696.81
511.48	701.90
511.84	706.05
512.20	710.38
512.56	714.48
512.92	719.95
513.28	724.19
513.64	728.33
514.00	732.33
514.37	737.10
514.73	742.29
515.09	747.05
515.45	751.81
515.81	756.38
516.17	760.81
516.53	764.71
516.89	767.24
517.25	770.57
517.61	775.67
517.97	779.67
518.33	784.52
518.69	788.24
519.05	792.24
519.41	796.62
519.77	802.05
520.13	805.86
520.49	809.00
520.85	812.62
521.21	816.52
521.57	820.86
521.93	822.57
522.29	825.10
522.65	826.81
523.01	828.81
523.37	830.57
523.73	834.29
524.09	836.57
524.45	838.90
524.81	841.24
525.17	842.62
525.53	844.57
525.89	846.43
526.25	848.81
526.61	849.67
526.97	851.10
527.33	851.67
527.68	855.95
528.04	857.57
528.40	858.52
528.76	859.52
529.12	859.57
529.48	862.19
529.84	863.67
530.20	865.38
530.56	867.05
530.91	868.33
531.27	868.81
531.63	869.81
531.99	871.24
532.35	872.38
532.71	872.90
533.07	874.67
533.42	877.62
533.78	878.38
534.14	879.52
534.50	880.67
534.86	882.00
535.21	880.33
535.57	882.76
535.93	883.14
536.29	885.76
536.65	887.43
537.00	888.33
537.36	889.05
537.72	891.48
538.08	894.71
538.44	897.43
538.79	899.38
539.15	901.71
539.51	903.57
539.87	905.62
540.22	908.57
540.58	910.86
540.94	911.57
541.29	913.86
541.65	916.14
542.01	918.24
542.37	919.52
542.72	920.33
543.08	919.95
543.44	921.43
543.79	920.24
544.15	920.43
544.51	921.48
544.87	921.29
545.22	918.95
545.58	915.43
545.94	912.76
546.29	911.24
546.65	908.71
547.01	906.00
547.36	903.86
547.72	901.19
548.07	897.14
548.43	892.95
548.79	889.19
549.14	885.81
549.50	882.71
549.86	879.19
550.21	877.33
550.57	874.67
550.92	871.57
551.28	870.33
551.64	867.76
551.99	864.62
552.35	861.67
552.70	859.52
553.06	858.48
553.41	856.62
553.77	855.95
554.13	854.48
554.48	852.43
554.84	850.57
555.19	848.24
555.55	849.14
555.90	848.00
556.26	845.57
556.61	842.86
556.97	840.10
557.32	837.76
557.68	835.10
558.03	832.81
558.39	831.81
558.74	829.29
559.10	826.57
559.45	824.48
559.81	823.43
560.16	821.29
560.52	819.62
560.87	818.62
561.23	814.71
561.58	814.62
561.94	812.71
562.29	810.76
562.64	809.29
563.00	805.48
563.35	803.95
563.71	803.67
564.06	802.67
564.42	800.62
564.77	799.05
565.12	797.57
565.48	798.76
565.83	797.05
566.19	795.38
566.54	794.43
566.89	793.57
567.25	792.71
567.60	793.29
567.96	793.52
568.31	792.76
568.66	793.43
569.02	790.38
569.37	789.48
569.72	788.14
570.08	786.76
570.43	785.19
570.78	783.10
571.14	780.76
571.49	779.67
571.84	778.67
572.20	778.29
572.55	776.90
572.90	773.14
573.26	771.00
573.61	769.14
573.96	768.38
574.31	766.67
574.67	764.90
575.02	762.95
575.37	760.29
575.72	758.24
576.08	755.57
576.43	753.24
576.78	751.95
577.13	750.52
577.49	748.52
577.84	747.52
578.19	746.67
578.54	745.71
578.90	744.52
579.25	743.95
579.60	742.57
579.95	740.86
580.30	740.00
580.66	739.33
581.01	738.24
581.36	735.81
581.71	733.62
582.06	733.38
582.42	731.86
582.77	729.43
583.12	728.24
583.47	727.43
583.82	727.10
584.17	726.24
584.53	725.81
584.88	724.86
585.23	724.33
585.58	722.52
585.93	720.05
586.28	718.14
586.63	716.10
586.98	714.14
587.34	712.29
587.69	709.67
588.04	707.14
588.39	704.24
588.74	701.38
589.09	699.71
589.44	695.29
589.79	692.38
590.14	689.48
590.49	685.86
590.84	681.81
591.19	679.33
591.54	675.95
591.89	672.29
592.25	670.71
592.60	666.24
592.95	662.90
593.30	660.86
593.65	657.76
594.00	654.14
594.35	657.38
594.70	654.38
595.05	651.29
595.40	648.43
595.75	646.48
596.10	644.52
596.45	641.33
596.80	639.57
597.15	636.90
597.50	634.52
597.85	633.05
598.19	630.52
598.54	627.00
598.89	623.52
599.24	621.24
599.59	616.81
599.94	613.81
600.29	611.90
600.64	609.10
600.99	607.90
601.34	605.81
601.69	597.33
602.04	594.90
602.39	592.57
602.74	590.90
603.08	588.81
603.43	587.71
603.78	586.33
604.13	583.71
604.48	582.43
604.83	582.10
605.18	580.76
605.53	580.76
605.87	583.14
606.22	587.48
606.57	591.29
606.92	596.29
607.27	602.57
607.62	607.67
607.96	612.76
608.31	616.14
608.66	620.38
609.01	623.95
609.36	627.52
609.70	631.67
610.05	634.10
610.40	636.00
610.75	637.67
611.10	639.10
611.44	640.48
611.79	640.24
612.14	639.57
612.49	638.29
612.83	636.67
613.18	632.19
613.53	626.24
613.88	619.62
614.22	611.81
614.57	603.10
614.92	594.19
615.27	586.86
615.61	579.71
615.96	572.67
616.31	565.48
616.65	560.24
617.00	553.90
617.35	548.05
617.70	542.81
618.04	537.05
618.39	532.14
618.74	527.52
619.08	523.29
619.43	519.24
619.78	515.52
620.12	511.62
620.47	509.05
620.82	506.00
621.16	502.81
621.51	501.62
621.85	499.19
622.20	497.67
622.55	494.52
622.89	491.71
623.24	489.76
623.59	487.90
623.93	485.05
624.28	482.14
624.62	482.57
624.97	482.19
625.32	480.00
625.66	477.95
626.01	476.24
626.35	474.67
626.70	472.76
627.04	472.48
627.39	471.38
627.73	470.24
628.08	468.95
628.43	466.62
628.77	463.81
629.12	461.57
629.46	459.38
629.81	457.86
630.15	456.33
630.50	453.90
630.84	451.90
631.19	449.33
631.53	447.52
631.88	443.00
632.22	438.90
632.57	437.48
632.91	435.24
633.26	433.00
633.60	430.62
633.95	428.14
634.29	424.29
634.64	422.05
634.98	418.95
635.32	416.90
635.67	415.33
636.01	413.48
636.36	411.62
636.70	410.52
637.05	408.43
637.39	406.24
637.73	404.95
638.08	403.67
638.42	402.19
638.77	400.52
639.11	398.05
639.45	396.67
639.80	394.38
640.14	393.29
640.49	391.76
640.83	390.29
641.17	389.76
641.52	388.48
641.86	386.90
642.20	386.76
642.55	384.48
642.89	383.29
643.23	381.71
643.58	381.57
643.92	379.43
644.26	378.00
644.61	377.24
644.95	376.00
645.29	374.48
645.64	374.05
645.98	373.19
646.32	373.43
646.66	372.57
647.01	371.33
647.35	370.05
647.69	369.76
648.04	369.67
648.38	368.43
648.72	367.62
649.06	366.52
649.41	364.43
649.75	363.95
650.09	363.57
650.43	362.62
650.78	360.71
651.12	359.76
651.46	359.24
651.80	357.62
652.14	356.81
652.49	356.29
652.83	354.38
653.17	353.33
653.51	351.81
653.85	350.76
654.20	349.71
654.54	348.71
654.88	346.90
655.22	345.00
655.56	343.81
655.90	342.67
656.25	342.19
656.59	341.57
656.93	340.62
657.27	340.57
657.61	339.67
657.95	339.29
658.29	338.62
658.64	338.24
658.98	337.62
659.32	336.29
659.66	334.95
660.00	334.76
660.34	333.90
660.68	333.33
661.02	332.95
661.36	332.29
661.70	331.38
662.05	330.81
662.39	331.24
662.73	331.29
663.07	332.29
663.41	331.33
663.75	330.57
664.09	330.33
664.43	328.10
664.77	327.57
665.11	326.29
665.45	325.67
665.79	325.29
666.13	324.43
666.47	323.52
666.81	323.14
667.15	322.14
667.49	321.71
667.83	322.00
668.17	320.19
668.51	319.76
668.85	319.33
669.19	319.29
669.53	317.62
669.87	316.14
670.21	314.29
670.55	313.76
670.89	314.24
671.23	313.48
671.57	313.10
671.91	312.67
672.25	312.29
672.58	312.67
672.92	311.05
673.26	310.76
673.60	310.81
673.94	310.38
674.28	309.90
674.62	309.76
674.96	308.38
675.30	308.48
675.64	307.90
675.97	307.29
676.31	306.48
676.65	306.00
676.99	306.33
677.33	305.38
677.67	304.95
678.01	302.71
678.34	302.24
678.68	302.38
679.02	301.52
679.36	301.38
679.70	300.19
680.04	300.19
680.37	299.81
680.71	298.71
681.05	297.95
681.39	297.81
681.73	296.90
682.06	296.43
682.40	296.24
682.74	296.29
683.08	296.81
683.42	296.24
683.75	296.43
684.09	295.57
684.43	295.43
684.77	294.67
685.10	294.57
685.44	294.05
685.78	293.29
686.12	292.81
686.45	292.14
686.79	291.52
687.13	291.29
687.46	290.52
687.80	290.90
688.14	290.48
688.48	290.33
688.81	290.43
689.15	290.76
689.49	290.05
689.82	289.76
690.16	288.52
690.50	287.86
690.83	287.24
691.17	286.38
691.51	285.95
691.84	286.57
692.18	286.67
692.52	286.10
692.85	286.10
693.19	287.05
693.52	286.62
693.86	285.81
694.20	285.29
694.53	285.24
694.87	284.62
695.21	283.95
695.54	283.48
695.88	282.14
696.21	280.76
696.55	280.29
696.88	279.86
697.22	279.24
697.56	279.05
697.89	278.33
698.23	278.71
698.56	278.52
698.90	277.90
699.23	276.90
699.57	277.29
699.90	276.52
700.24	275.57
700.58	275.81
700.91	276.52
701.25	278.71
701.58	279.52
701.92	280.43
702.25	280.76
702.59	280.57
702.92	281.43
703.26	282.24
703.59	282.67
703.93	284.62
704.26	285.52
704.60	286.29
704.93	286.71
705.26	286.57
705.60	287.29
705.93	286.90
706.27	288.05
706.60	288.38
706.94	289.81
707.27	289.33
707.61	289.38
707.94	289.19
708.27	287.24
708.61	286.62
708.94	285.76
709.28	286.05
709.61	285.62
709.94	285.29
710.28	284.62
710.61	284.19
710.95	281.62
711.28	282.67
711.61	281.38
711.95	281.38
712.28	280.67
712.61	279.10
712.95	279.48
713.28	279.67
713.61	278.24
713.95	276.71
714.28	276.43
714.61	275.38
714.95	274.62
715.28	273.29
715.61	272.19
715.95	271.86
716.28	270.81
716.61	270.67
716.95	269.71
717.28	269.10
717.61	268.24
717.94	267.86
718.28	265.48
718.61	265.52
718.94	264.52
719.27	264.10
719.61	264.38
719.94	263.52
720.27	262.14
720.60	261.76
720.94	261.29
721.27	261.19
721.60	261.48
721.93	261.00
722.27	261.57
722.60	262.00
722.93	261.57
723.26	261.48
723.59	260.86
723.93	261.38
724.26	261.67
724.59	261.81
724.92	261.86
725.25	262.33
725.59	262.24
725.92	262.71
726.25	262.19
726.58	261.81
726.91	261.62
727.24	261.62
727.57	261.76
727.91	261.38
728.24	261.48
728.57	261.24
728.90	261.33
729.23	260.71
729.56	261.43
729.89	260.71
730.22	260.33
730.55	260.29
730.89	260.00
731.22	259.52
731.55	259.57
731.88	259.38
732.21	258.57
732.54	258.05
732.87	257.67
733.20	257.67
733.53	257.62
733.86	257.76
734.19	257.43
734.52	257.86
734.85	259.24
735.18	258.71
735.51	259.33
735.84	259.48
736.17	260.00
736.50	258.62
736.83	261.38
737.16	261.62
737.49	261.52
737.82	260.67
738.15	260.81
738.48	260.43
738.81	260.14
739.14	259.90
739.47	259.95
739.80	259.33
740.13	259.86
740.46	259.76
740.79	259.24
741.12	259.10
741.45	258.52
741.78	257.14
742.11	257.67
742.44	256.71
742.77	257.10
743.10	256.57
743.43	256.48
743.75	253.86
744.08	256.38
744.41	256.05
744.74	256.43
745.07	255.71
745.40	255.71
745.73	256.62
746.06	256.71
746.39	256.95
746.71	257.00
747.04	256.29
747.37	256.10
747.70	256.62
748.03	256.67
748.36	256.76
748.68	256.81
749.01	256.05
749.34	256.14
749.67	255.90
750.00	256.10
750.33	257.90
750.65	258.29
750.98	255.62
751.31	255.95
751.64	255.95
751.97	257.48
752.29	257.33
752.62	256.43
752.95	256.14
753.28	255.57
753.60	255.29
753.93	256.14
754.26	256.14
754.59	255.05
754.91	254.76
755.24	254.29
755.57	254.00
755.90	253.62
756.22	253.24
756.55	252.43
756.88	251.62
757.20	249.81
757.53	249.05
757.86	248.76
758.19	248.52
758.51	248.57
758.84	247.33
759.17	247.14
759.49	246.95
759.82	248.43
760.15	248.62
760.47	248.81
760.80	247.71
761.13	248.24
761.45	248.19
761.78	247.95
762.11	248.19
762.43	248.14
762.76	248.48
763.08	248.95
763.41	249.10
763.74	249.33
764.06	249.00
764.39	249.14
764.71	249.10
765.04	248.67
765.37	247.90
765.69	247.76
766.02	247.81
766.34	247.67
766.67	246.33
767.00	246.67
767.32	247.86
767.65	249.33
767.97	248.76
768.30	248.95
768.62	249.33
768.95	249.10
769.27	248.86
769.60	248.71
769.92	247.90
770.25	247.43
770.57	246.95
770.90	247.10
771.22	246.76
771.55	246.90
771.87	246.76
772.20	247.05
772.52	249.24
772.85	252.29
773.17	252.38
773.50	252.33
773.82	252.00
774.15	250.52
774.47	249.14
774.80	249.29
775.12	249.29
775.45	248.95
775.77	249.00
776.09	249.43
776.42	249.71
776.74	250.52
777.07	250.57
777.39	250.76
777.72	250.52
778.04	250.81
778.36	250.33
778.69	250.71
779.01	250.90
779.33	248.48
779.66	245.71
779.98	245.67
780.31	245.90
780.63	246.76
780.95	247.48
781.28	247.43
781.60	247.00
781.92	246.76
782.25	246.62
782.57	246.62
782.89	246.10
783.22	246.14
783.54	245.62
783.86	245.76
784.19	245.95
784.51	246.67
784.83	246.67
785.16	246.86
785.48	247.00
785.80	247.00
786.12	247.14
786.45	246.71
786.77	246.67
787.09	246.33
787.42	245.43
787.74	245.19
788.06	245.19
788.38	244.90
788.71	244.86
789.03	245.24
789.35	245.62
789.67	245.48
789.99	245.52
790.32	245.00
790.64	245.14
790.96	246.76
791.28	246.10
791.61	245.67
791.93	245.62
792.25	245.43
792.57	247.00
792.89	246.76
793.21	246.90
793.54	246.48
793.86	246.05
794.18	246.29
794.50	246.10
794.82	245.76
795.14	246.29
795.47	246.86
795.79	246.57
796.11	245.76
796.43	245.86
796.75	245.52
797.07	245.71
797.39	245.67
797.71	244.00
798.04	244.19
798.36	244.48
798.68	244.48
799.00	244.57
799.32	243.05
799.64	243.62
799.96	243.81
800.28	244.67
800.60	244.71
800.92	244.57
801.24	244.29
801.56	244.76
801.89	244.48
802.21	244.33
802.53	244.14
802.85	245.00
803.17	246.05
803.49	245.57
803.81	245.48
804.13	245.33
804.45	245.10
804.77	245.33
805.09	245.48
805.41	245.10
805.73	244.57
806.05	244.05
806.37	243.67
806.69	243.52
807.01	243.52
807.33	243.71
807.65	243.00
807.97	244.14
808.28	243.76
808.60	243.81
808.92	243.52
809.24	245.10
809.56	244.48
809.88	243.43
810.20	243.71
810.52	244.38
810.84	244.10
811.16	243.90
811.48	243.67
811.80	244.29
812.12	244.52
812.43	245.19
812.75	245.48
813.07	245.00
813.39	245.10
813.71	244.33
814.03	244.24
814.35	244.57
814.67	243.38
814.98	243.86
815.30	243.76
815.62	243.43
815.94	241.76
816.26	242.81
816.58	242.71
816.89	242.81
817.21	242.24
817.53	242.57
817.85	242.62
818.17	242.29
818.48	241.19
818.80	241.52
819.12	240.90
819.44	240.57
819.76	240.52
820.07	240.48
820.39	240.76
820.71	240.95
821.03	240.95
821.34	240.95
821.66	241.24
821.98	241.71
822.30	241.76
822.61	243.14
822.93	241.95
823.25	242.05
823.57	242.10
823.88	242.90
824.20	242.81
824.52	243.43
824.83	243.43
825.15	243.38
825.47	243.19
825.79	243.71
826.10	243.43
826.42	243.48
826.74	243.38
827.05	243.05
827.37	242.95
827.69	242.86
828.00	242.86
828.32	242.62
828.64	242.05
828.95	243.33
829.27	242.81
829.58	242.95
829.90	243.29
830.22	243.43
830.53	242.43
830.85	242.38
831.17	241.90
831.48	241.90
831.80	242.00
832.11	241.81
832.43	241.38
832.75	241.38
833.06	242.95
833.38	242.52
833.69	242.67
834.01	242.86
834.32	242.76
834.64	242.90
834.96	242.52
835.27	242.81
835.59	241.95
835.90	241.48
836.22	241.19
836.53	240.71
836.85	240.19
837.16	243.10
837.48	243.19
837.79	243.90
838.11	244.00
838.42	244.10
838.74	244.19
839.05	244.10
839.37	244.10
839.68	242.76
840.00	242.76
840.31	243.05
840.63	242.67
840.94	242.38
841.26	242.14
841.57	242.29
841.88	242.24
842.20	242.05
842.51	241.57
842.83	241.90
843.14	243.76
843.46	244.10
843.77	242.43
844.08	241.95
844.40	241.05
844.71	240.90
845.03	240.57
845.34	240.62
845.65	240.48
845.97	240.62
846.28	240.71
846.60	240.90
846.91	240.33
847.22	240.76
847.54	241.57
847.85	241.76
848.16	241.52
848.48	241.19
848.79	241.86
849.10	242.14
849.42	242.19
849.73	240.24
850.04	240.29
850.36	239.33
850.67	239.90
850.98	239.76
851.30	239.95
851.61	239.90
851.92	239.81
852.23	240.71
852.55	240.67
852.86	240.38
853.17	240.38
853.49	241.19
853.80	241.48
854.11	241.29
854.42	241.57
854.74	241.19
855.05	241.52
855.36	240.24
855.67	240.48
855.99	240.29
856.30	243.33
856.61	243.24
856.92	243.29
857.23	243.29
857.55	243.52
857.86	243.52
858.17	244.10
858.48	243.90
858.79	243.38
859.11	243.52
859.42	243.29
859.73	243.10
860.04	242.62
860.35	241.90
860.66	241.19
860.98	240.67
861.29	241.10
861.60	240.62
861.91	241.86
862.22	241.62
862.53	241.24
862.84	238.29
863.16	238.71
863.47	238.33
863.78	238.19
864.09	238.19
864.40	238.14
864.71	238.14
865.02	238.67
865.33	238.33
865.64	238.24
865.95	238.62
866.27	240.43
866.58	240.00
866.89	240.38
867.20	240.38
867.51	240.19
867.82	240.05
868.13	240.81
868.44	240.05
868.75	240.00
869.06	240.33
869.37	240.62
869.68	239.86
869.99	240.57
870.30	240.62
870.61	240.81
870.92	240.67
871.23	240.52
871.54	240.62
871.85	241.19
872.16	241.19
872.47	240.90
872.78	239.38
873.09	239.90
873.40	239.38
873.71	239.76
874.02	240.05
874.33	240.10
874.64	239.57
874.95	239.76
875.26	239.48
875.56	239.24
875.87	238.95
876.18	238.90
876.49	241.29
876.80	240.90
877.11	240.57
877.42	240.48
877.73	240.38
878.04	240.10
878.35	240.29
878.66	240.38
878.96	240.43
879.27	240.33
879.58	240.29
879.89	239.90
880.20	240.71
880.51	240.62
880.82	240.57
881.12	241.05
881.43	240.52
881.74	240.19
882.05	240.43
882.36	240.48
882.67	240.62
882.97	237.76
883.28	237.90
883.59	237.86
883.90	238.10
884.21	238.43
884.51	238.43
884.82	237.62
885.13	237.95
885.44	237.86
885.74	237.81
886.05	237.67
886.36	238.14
886.67	237.29
886.98	238.62
887.28	238.86
887.59	238.24
887.90	238.38
888.20	238.76
888.51	239.19
888.82	239.00
889.13	239.29
889.43	241.24
889.74	241.05
890.05	240.81
890.35	240.81
890.66	240.57
890.97	240.19
891.28	240.24
891.58	239.71
891.89	239.33
892.20	239.14
892.50	239.10
892.81	239.00
893.12	238.62
893.42	237.33
893.73	237.29
894.04	237.29
894.34	237.57
894.65	237.52
894.95	237.05
895.26	237.14
895.57	237.95
895.87	235.76
896.18	236.57
896.48	236.71
896.79	236.52
897.10	236.43
897.40	236.57
897.71	236.62
898.01	236.95
898.32	237.67
898.63	237.76
898.93	237.81
899.24	237.76
899.54	238.14
899.85	238.10
900.15	238.00
900.46	238.29
900.76	238.52
901.07	238.38
901.38	238.43
901.68	238.71
901.99	237.38
902.29	238.00
902.60	237.48
902.90	237.52
903.21	237.52
903.51	237.67
903.82	238.10
904.12	238.67
904.43	238.57
904.73	238.52
905.03	238.62
905.34	241.10
905.64	241.29
905.95	241.10
906.25	241.24
906.56	241.43
906.86	241.19
907.17	241.10
907.47	241.43
907.77	241.10
908.08	240.86
908.38	241.57
908.69	241.19
908.99	241.81
909.30	241.81
909.60	241.76
909.90	241.95
910.21	241.33
910.51	240.43
910.81	240.43
911.12	240.71
911.42	240.71
911.73	238.05
912.03	238.00
912.33	238.57
912.64	238.05
912.94	237.67
913.24	237.86
913.55	237.48
913.85	237.19
914.15	237.86
914.46	237.90
914.76	237.48
915.06	237.24
915.37	236.48
915.67	236.67
915.97	236.95
916.27	236.14
916.58	236.38
916.88	236.67
917.18	237.05
917.49	238.29
917.79	238.19
918.09	238.48
918.39	239.14
918.70	238.62
919.00	239.10
919.30	239.76
919.60	239.52
919.91	239.33
920.21	239.57
920.51	239.00
920.81	238.71
921.12	238.71
921.42	239.00
921.72	239.29
922.02	239.62
922.32	239.81
922.63	240.33
922.93	241.62
923.23	241.62
923.53	241.14
923.83	239.62
924.13	239.62
924.44	239.67
924.74	240.10
925.04	241.14
925.34	241.19
925.64	240.62
925.94	240.71
926.24	242.43
926.55	242.00
926.85	242.19
927.15	242.14
927.45	242.52
927.75	242.24
928.05	242.05
928.35	241.38
928.65	241.52
928.95	241.48
929.26	240.29
929.56	240.76
929.86	240.71
930.16	240.81
930.46	240.95
930.76	240.81
931.06	239.57
931.36	238.71
931.66	239.19
931.96	239.67
932.26	239.62
932.56	238.29
932.86	238.86
933.16	239.29
933.46	239.43
933.76	239.00
934.06	239.81
934.36	241.00
934.66	240.86
934.96	240.71
935.26	240.86
935.56	241.33
935.86	240.86
936.16	240.62
936.46	240.38
936.76	240.33
937.06	240.19
937.36	240.62
937.66	240.90
937.96	240.67
938.26	239.90
938.56	239.71
938.86	239.86
939.16	240.05
939.46	239.95
939.76	240.10
940.06	240.29
940.35	239.57
940.65	238.24
940.95	238.81
941.25	238.24
941.55	238.24
941.85	238.10
942.15	238.52
942.45	239.14
942.75	239.00
943.04	239.00
943.34	239.48
943.64	239.05
943.94	238.38
944.24	238.43
944.54	238.81
944.84	238.81
945.13	238.52
945.43	237.95
945.73	237.81
946.03	237.43
946.33	237.14
946.62	237.05
946.92	237.29
947.22	237.10
947.52	237.48
947.82	237.52
948.11	237.33
948.41	237.10
948.71	236.71
949.01	237.19
949.31	237.00
949.60	236.71
949.90	237.19
950.20	237.38
950.50	237.10
950.79	236.57
951.09	237.00
951.39	237.00
951.69	236.81
951.98	237.24
952.28	237.71
952.58	237.52
952.87	237.62
953.17	237.67
953.47	237.81
953.76	237.71
954.06	237.19
954.36	236.67
954.66	236.62
954.95	237.10
955.25	237.10
955.55	237.24
955.84	237.10
956.14	236.95
956.44	237.10
956.73	237.00
957.03	237.38
957.32	237.29
957.62	237.10
957.92	237.71
958.21	237.33
958.51	239.86
958.81	240.19
959.10	240.71
959.40	241.19
959.69	240.71
959.99	241.05
960.29	241.14
960.58	241.29
960.88	242.33
961.17	242.14
961.47	242.43
961.76	242.38
962.06	242.62
962.36	242.48
962.65	242.57
962.95	242.52
963.24	242.38
963.54	242.71
963.83	243.33
964.13	243.19
964.42	242.76
964.72	240.81
965.01	240.81
965.31	240.48
965.60	240.00
965.90	241.81
966.19	241.14
966.49	241.29
966.78	241.29
967.08	240.90
967.37	240.76
967.67	240.14
967.96	240.48
968.26	240.62
968.55	241.10
968.85	241.10
969.14	241.00
969.43	241.19
969.73	240.62
970.02	240.24
970.32	240.33
970.61	240.48
970.91	239.81
971.20	239.52
971.49	239.24
971.79	239.52
972.08	237.76
972.38	238.10
972.67	237.95
972.96	238.48
973.26	237.95
973.55	238.57
973.85	238.48
974.14	238.14
974.43	238.00
974.73	237.52
975.02	237.05
975.31	237.19
975.61	236.95
975.90	236.95
976.19	236.43
976.49	236.62
976.78	236.76
977.07	236.67
977.37	236.76
977.66	236.95
977.95	236.62
978.24	236.86
978.54	237.52
978.83	237.48
979.12	237.05
979.42	237.00
979.71	236.90
980.00	236.81
980.29	237.00
980.59	236.76
980.88	237.38
981.17	237.52
981.46	237.38
981.76	237.38
982.05	238.05
982.34	238.33
982.63	238.14
982.93	238.00
983.22	238.62
983.51	238.90
983.80	239.14
984.09	239.48
984.39	239.14
984.68	238.43
984.97	238.62
985.26	238.57
985.55	239.00
985.85	238.10
986.14	238.67
986.43	238.90
986.72	238.71
987.01	238.10
987.30	237.86
987.59	237.81
987.89	237.95
988.18	237.14
988.47	237.00
988.76	236.67
989.05	236.38
989.34	235.86
989.63	236.67
989.92	236.52
990.22	235.90
990.51	236.10
990.80	235.95
991.09	235.90
991.38	236.10
991.67	235.71
991.96	235.90
992.25	235.62
992.54	234.95
992.83	235.10
993.12	234.90
993.41	235.57
993.70	236.67
993.99	237.43
994.28	238.19
994.58	238.67
994.87	238.67
995.16	238.76
995.45	238.76
995.74	237.62
996.03	237.81
996.32	238.76
996.61	239.48
996.90	239.33
997.19	239.29
997.48	239.19
997.77	238.71
998.06	238.90
998.34	238.76
998.63	238.95
998.92	239.24
999.21	239.48
999.50	239.33
999.79	238.33
1000.08	238.14
1000.37	237.95
1000.66	237.62
1000.95	238.29
1001.24	238.86
1001.53	239.33
1001.82	239.10
1002.11	238.81
1002.40	238.81
1002.68	239.29
1002.97	241.10
1003.26	240.95
1003.55	240.52
1003.84	240.90
1004.13	241.43
1004.42	241.52
1004.71	241.38
1004.99	241.19
1005.28	241.48
1005.57	241.43
1005.86	241.10
1006.15	240.62
1006.44	240.24
1006.72	240.81
1007.01	240.29
1007.30	239.95
1007.59	239.62
1007.88	239.81
1008.17	240.00
1008.45	239.00
1008.74	237.95
1009.03	236.86
1009.32	236.86
1009.60	236.90
1009.89	236.57
1010.18	235.52
1010.47	235.33
1010.76	235.48
1011.04	235.38
1011.33	235.29
1011.62	235.29
1011.91	235.19
1012.19	235.33
1012.48	235.48
1012.77	235.38
1013.05	236.43
1013.34	236.48
1013.63	236.24
1013.92	236.57
1014.20	236.29
1014.49	236.62
1014.78	236.86
1015.06	236.24
1015.35	236.10
1015.64	236.86
1015.92	237.24
1016.21	237.71
1016.50	238.05
1016.78	238.14
1017.07	238.29
1017.36	238.24
1017.64	237.86
1017.93	238.33
1018.22	238.00
1018.50	237.90
1018.79	237.52
1019.08	236.67
1019.36	237.05
1019.65	237.14
1019.93	237.48
1020.22	237.81
1020.51	239.14
1020.79	239.05
1021.08	232.00
1021.36	235.00
1021.65	235.00
1021.94	241.00
1022.22	246.00
1022.51	237.00
1022.79	246.00
1023.08	241.00
1023.36	267.00
1023.65	238.00
>>>>>End Processed Spectral Data<<<<<
